timestamp,x,y,z
1541874448774648,0.855957,-0.306641,0.444824
1541874448775650,0.969727,-0.474121,0.500977
1541874448776650,0.954102,-0.538574,0.506348
1541874448796666,0.467285,-0.249512,0.586914
1541874448835696,0.319824,-0.331055,0.599609
1541874448838698,0.378418,-0.579102,0.591797
1541874448856713,0.621582,-0.703125,0.495117
1541874448877766,0.727051,-0.632324,0.436035
1541874448894763,0.806641,-0.584961,0.43457
1541874448961813,0.85791,-0.579102,0.382324
1541874448961813,0.891602,-0.635254,0.326172
1541874449014853,0.87793,-0.636719,0.308594
1541874449216050,0.853027,-0.46582,0.312012
1541874449456238,0.879883,-0.251953,0.303223
1541874449458240,0.91748,-0.124512,0.313965
1541874449479222,1.01514,-0.5625,0.303711
1541874449481222,1.05811,-0.347168,0.125488
1541874449517271,0.967285,-0.396484,0.144043
1541874449524293,0.912109,-0.45752,0.149902
1541874449526258,0.893066,-0.478027,0.159668
1541874449548272,0.876465,-0.460938,0.133301
1541874449560323,0.890625,-0.43457,0.106445
1541874449583304,0.891602,-0.395996,0.132324
1541874449597295,0.908691,-0.388184,0.160156
1541874449620315,0.875488,-0.412109,0.176758
1541874449643385,0.869629,-0.445313,0.198242
1541874449697388,0.805176,-0.487793,0.251953
1541874449718444,0.739746,-0.518555,0.34082
1541874449721429,0.781738,-0.508789,0.379395
1541874449765428,0.891113,-0.446777,0.381836
1541874449771451,0.936035,-0.335938,0.388184
1541874449773447,0.840332,-0.224609,0.474609
1541874449791501,1.02393,-0.400391,0.46582
1541874449813484,1.09131,-0.442871,0.416016
1541874449828495,0.92627,-0.251953,0.435547
1541874449851494,0.873047,-0.171875,0.466309
1541874449873567,0.90332,-0.243164,0.459961
1541874449888578,0.962402,-0.319824,0.418945
1541874449911544,0.976563,-0.324219,0.369629
1541874449936562,0.979492,-0.307129,0.306152
1541874449948586,0.952148,-0.316895,0.269531
1541874449971642,0.922363,-0.344238,0.253906
1541874449993625,0.907715,-0.381836,0.266602
1541874450008637,0.894531,-0.406738,0.277344
1541874450031636,0.89502,-0.412598,0.300293
1541874450062714,0.879883,-0.447266,0.30957
1541874450071667,0.862793,-0.462402,0.328125
1541874450107695,0.865234,-0.452148,0.341309
1541874450122718,0.861328,-0.421875,0.355469
1541874450167746,0.840332,-0.388184,0.349121
1541874450191778,0.822266,-0.34082,0.364746
1541874450200789,0.814941,-0.28125,0.352051
1541874450253825,0.925781,-0.250977,0.338379
1541874450275847,0.934082,-0.340332,0.319336
1541874450326877,0.957031,-0.373535,0.295898
1541874450348939,1.20313,-0.438477,0.249023
1541874450350941,0.921387,-0.162109,0.284668
1541874450365914,0.686523,-0.124023,0.318848
1541874450400945,0.748535,-0.105469,0.299316
1541874450402927,0.933105,-0.188965,0.291504
1541874450413955,1.10107,-0.337891,0.284668
1541874450428963,1.16113,-0.436523,0.249512
1541874450450980,1.14795,-0.467285,0.263184
1541874450473985,1.11816,-0.429199,0.306152
1541874450492051,1.05176,-0.401367,0.347656
1541874450514015,1.01074,-0.464355,0.357422
1541874450529037,0.968262,-0.44873,0.379883
1541874450549097,0.90918,-0.410645,0.394531
1541874450571075,0.927246,-0.386719,0.342285
1541874450589074,0.928223,-0.396973,0.338867
1541874450609091,0.91748,-0.424805,0.316895
1541874450631125,0.916992,-0.358887,0.313965
1541874450649140,0.883301,-0.288086,0.321289
1541874450670137,0.824707,-0.249023,0.344238
1541874450694156,0.810059,-0.317383,0.366699
1541874450717190,0.803223,-0.419434,0.407227
1541874450730185,0.841797,-0.446289,0.405762
1541874450751221,0.845215,-0.366211,0.403809
1541874450769235,0.786621,-0.350098,0.414551
1541874450791246,0.84082,-0.500977,0.44043
1541874450811269,1.07861,-0.71582,0.378906
1541874450829281,1.0957,-0.616699,0.34668
1541874450850298,0.958008,-0.320801,0.34668
1541874450871311,0.833008,-0.100098,0.354492
1541874450889328,0.858398,-0.100098,0.303711
1541874450910344,0.998535,-0.195801,0.166504
1541874450934365,1.03467,-0.178711,0.081543
1541874450949375,1.03613,-0.183594,0.0629883
1541874450970392,1.021,-0.198242,0.0825195
1541874450991444,0.968262,-0.290039,0.0834961
1541874451009420,0.924805,-0.388184,0.128906
1541874451031421,0.876465,-0.461426,0.157227
1541874451058461,0.847656,-0.50293,0.166016
1541874451069470,0.855469,-0.520508,0.166992
1541874451091470,0.895996,-0.523926,0.178711
1541874451114500,0.932617,-0.497559,0.219238
1541874451136505,0.931152,-0.447266,0.280273
1541874451159522,0.897949,-0.419434,0.333496
1541874451188544,0.879883,-0.384277,0.385254
1541874451190546,0.833008,-0.401367,0.441895
1541874451234596,0.835938,-0.463867,0.438965
1541874451248610,0.896973,-0.500488,0.40625
1541874451251609,1.02686,-0.438965,0.368652
1541874451272650,1.1582,-0.388672,0.34082
1541874451291639,1.21484,-0.336914,0.33252
1541874451315646,1.23633,-0.317383,0.34082
1541874451338672,1.25342,-0.372559,0.347656
1541874451377705,1.30469,-0.397461,0.32373
1541874451391724,1.23535,-0.30957,0.318359
1541874451393705,1.11523,-0.134766,0.31543
1541874451422745,1.00781,-0.0253906,0.295898
1541874451443768,0.990234,-0.0629883,0.254395
1541874451466782,1.03955,-0.0498047,0.163086
1541874451488834,1.09717,0.0375977,0.108398
1541874451491798,1.16895,0.0830078,0.0820313
1541874451524862,1.24756,0.0668945,0.126953
1541874451531833,1.24268,0.0439453,0.168945
1541874451555838,1.16797,-0.0332031,0.191895
1541874451578882,1.06982,-0.161621,0.22168
1541874451600869,1.00488,-0.299316,0.213379
1541874451639899,0.952637,-0.370117,0.244141
1541874451681952,0.89502,-0.398438,0.254883
1541874451692950,0.836914,-0.405273,0.270996
1541874451735993,0.785645,-0.411133,0.287598
1541874451745989,0.791504,-0.435059,0.318359
1541874451752000,0.805664,-0.404297,0.357422
1541874451788035,0.829102,-0.42334,0.327148
1541874451791018,0.895996,-0.436523,0.312012
1541874451812050,0.964355,-0.402344,0.282715
1541874451834052,1.03174,-0.428711,0.289063
1541874451863085,1.0957,-0.413086,0.307617
1541874451878086,1.0542,-0.356445,0.296387
1541874451899158,0.997559,-0.302246,0.276855
1541874451916116,0.953125,-0.272461,0.23584
1541874451970172,0.92627,-0.223145,0.192383
1541874451982182,0.946289,-0.18457,0.169922
1541874452066254,0.956055,-0.214844,0.195801
1541874452089306,0.930664,-0.29248,0.262695
1541874452104263,0.871582,-0.329102,0.271973
1541874452150299,0.782715,-0.300781,0.22998
1541874452172353,0.775391,-0.313965,0.212402
1541874452173321,0.790527,-0.340332,0.222168
1541874452405501,0.847168,-0.388672,0.228516
1541874452426536,0.873047,-0.439453,0.240723
1541874452442548,0.999512,0.00585938,0.430664
1541874452448540,0.952637,-0.0107422,0.42334
1541874452463564,0.860352,-0.0390625,0.444336
1541874452472572,0.763184,-0.0498047,0.433105
1541874452493586,0.730957,-0.0737305,0.444336
1541874452515598,0.796387,-0.0771484,0.428223
1541874452546630,0.841797,0.0136719,0.370605
1541874452599652,0.843262,0.131836,0.335449
1541874452628732,0.839844,0.186035,0.322266
1541874452653696,0.881348,0.194824,0.290039
1541874452675732,0.916504,0.156738,0.304688
1541874452696732,0.943359,-0.0463867,0.281738
1541874452698730,0.943848,-0.104004,0.250488
1541874452750791,0.911621,-0.129395,0.249023
1541874452772805,0.877441,-0.142578,0.245605
1541874452773789,0.851563,-0.192871,0.25293
1541874452846877,0.851074,-0.282715,0.256348
1541874452862862,0.88623,-0.297363,0.260254
1541874452885896,0.887695,-0.268555,0.315918
1541874452958989,0.871094,-0.268555,0.333008
1541874452961960,0.869629,-0.282227,0.317383
1541874452982953,0.87793,-0.303711,0.322754
1541874452986977,0.859375,-0.250977,0.275879
1541874453010030,0.881348,-0.22998,0.261719
1541874453017000,0.902832,-0.239746,0.274902
1541874453033011,0.913574,-0.264648,0.303711
1541874453062016,0.893066,-0.240234,0.335938
1541874453077047,0.875488,-0.234375,0.372559
1541874453094044,0.865723,-0.233398,0.414063
1541874453116059,0.864258,-0.304688,0.442383
1541874453139089,0.862793,-0.317871,0.445801
1541874453161110,0.862305,-0.328613,0.464355
1541874453183132,0.858398,-0.337891,0.466309
1541874453214155,0.853027,-0.334961,0.473633
1541874453216150,0.835938,-0.342285,0.48584
1541874453236168,0.812012,-0.365723,0.468262
1541874453266188,0.787109,-0.408203,0.465332
1541874453273182,0.745117,-0.451172,0.460938
1541874453296220,0.722168,-0.464355,0.45166
1541874453317249,0.720703,-0.480469,0.43457
1541874453341272,0.727051,-0.479492,0.417969
1541874453363268,0.734375,-0.491699,0.431641
1541874453384289,0.763184,-0.492676,0.425781
1541874453393286,0.780273,-0.536621,0.404785
1541874453439331,0.77832,-0.544434,0.419434
1541874453441313,0.765625,-0.549805,0.414063
1541874453461330,0.73877,-0.556152,0.427734
1541874453476356,0.716797,-0.57666,0.431152
1541874453497376,0.69043,-0.602051,0.4375
1541874453519390,0.670898,-0.643066,0.441895
1541874453544412,0.638672,-0.638672,0.458008
1541874453564429,0.620605,-0.639648,0.442383
1541874453573418,0.594238,-0.660645,0.439941
1541874453596435,0.579102,-0.6875,0.426758
1541874453618453,0.560059,-0.710938,0.441895
1541874453640470,0.537598,-0.697754,0.443359
1541874453656484,0.530762,-0.69043,0.433105
1541874453693531,0.53418,-0.712891,0.437012
1541874453695525,0.550293,-0.712402,0.447754
1541874453716530,0.564453,-0.69043,0.464355
1541874453737557,0.59082,-0.651855,0.431152
1541874453752559,0.593262,-0.70752,0.432617
1541874453775596,0.57373,-0.756348,0.438965
1541874453798613,0.557617,-0.738281,0.45459
1541874453812608,0.517578,-0.689941,0.454102
1541874453835642,0.501953,-0.720703,0.456055
1541874453858661,0.456055,-0.741699,0.44873
1541874453872663,0.449707,-0.766113,0.45752
1541874453895670,0.407715,-0.730957,0.446777
1541874453918689,0.346191,-0.737793,0.441895
1541874453932702,0.29541,-0.71582,0.422363
1541874453955738,0.255859,-0.838379,0.444336
1541874453978757,0.223633,-0.845215,0.43457
1541874453999752,0.211426,-0.854492,0.447266
1541874454015765,0.164551,-0.868652,0.446289
1541874454038783,0.131348,-0.859863,0.438477
1541874454059799,0.0996094,-0.907715,0.450684
1541874454083857,0.0458984,-0.873047,0.479492
1541874454098850,0.0693359,-0.837891,0.447754
1541874454119902,0.230957,-0.787109,0.519043
1541874454135859,0.23291,-0.882324,0.512695
1541874454158933,0.204102,-0.825684,0.608398
1541874454179948,0.0405273,-0.902344,0.567383
1541874454195906,-0.195313,-0.933594,0.589844
1541874454218944,-0.185059,-1.02832,0.610352
1541874454239960,-0.210938,-0.883301,0.63916
1541874454255008,-0.23877,-0.84082,0.625488
1541874454261974,-0.294434,-0.82959,0.599121
1541874454283998,-0.271484,-0.875488,0.593262
1541874454306013,-0.239746,-0.789551,0.542969
1541874454332028,-0.214355,-0.776367,0.503906
1541874454345058,-0.213867,-0.769531,0.491699
1541874454366041,-0.152344,-0.770508,0.492188
1541874454381054,-0.110352,-0.769531,0.501953
1541874454404089,-0.0751953,-0.747559,0.472656
1541874454426106,-0.0253906,-0.796387,0.478516
1541874454441102,0.0136719,-0.818848,0.512207
1541874454464172,0.0268555,-0.802734,0.542969
1541874454486154,0.0131836,-0.810547,0.569336
1541874454501165,0.0200195,-0.814453,0.619141
1541874454524219,0.0600586,-0.812988,0.620605
1541874454546206,0.0854492,-0.850098,0.65918
1541874454561197,0.097168,-0.849609,0.688477
1541874454584230,0.149902,-0.864746,0.717773
1541874454602281,0.172363,-0.796387,0.754395
1541874454621260,0.14209,-0.655762,0.73584
1541874454644278,0.157715,-0.604004,0.641602
1541874454662273,0.238281,-0.757324,0.640137
1541874454681308,0.319336,-0.820801,0.640137
1541874454711311,0.315918,-0.758301,0.672363
1541874454722374,0.328125,-0.618652,0.633301
1541874454741337,0.368652,-0.620117,0.643066
1541874454764372,0.344238,-0.851074,0.678711
1541874454782382,0.432617,-0.891602,0.706543
1541874454809409,0.350586,-0.674805,0.727051
1541874454824420,0.375488,-0.620117,0.723145
1541874454842423,0.374023,-0.656738,0.73877
1541874454869449,0.334473,-0.665527,0.727051
1541874454892473,0.301758,-0.652344,0.715332
1541874454909486,0.299805,-0.651855,0.702637
1541874454921496,0.32373,-0.682129,0.663086
1541874454946515,0.34668,-0.695801,0.660156
1541874454961527,0.349609,-0.698242,0.651855
1541874454981534,0.333008,-0.674316,0.654785
1541874455011562,0.360352,-0.641602,0.659668
1541874455021566,0.345703,-0.639648,0.67627
1541874455041589,0.34668,-0.645996,0.689453
1541874455063590,0.356445,-0.63623,0.710449
1541874455081602,0.345215,-0.624512,0.734375
1541874455104657,0.330078,-0.597656,0.76709
1541874455123655,0.282715,-0.634766,0.788086
1541874455146673,0.263672,-0.672363,0.773926
1541874455161687,0.251953,-0.671387,0.762695
1541874455183703,0.226563,-0.679688,0.746582
1541874455209724,0.217285,-0.673828,0.749023
1541874455221769,0.193359,-0.673828,0.767578
1541874455243784,0.115234,-0.721191,0.726563
1541874455261745,0.131836,-0.658691,0.705078
1541874455281779,0.122559,-0.646973,0.699219
1541874455303779,0.115234,-0.644531,0.739746
1541874455321790,0.103516,-0.629395,0.689453
1541874455341825,0.0957031,-0.713867,0.740234
1541874455363843,0.107422,-0.650879,0.768555
1541874455381849,0.124023,-0.554199,0.666504
1541874455402855,0.174316,-0.667969,0.62207
1541874455431877,0.143066,-0.760254,0.637207
1541874455441886,0.100586,-0.717773,0.641113
1541874455462917,0.074707,-0.724121,0.584473
1541874455483938,0.0239258,-0.773926,0.594727
1541874455506956,-0.00878906,-0.78418,0.599609
1541874455522956,-0.0244141,-0.819824,0.615723
1541874455543980,-0.0473633,-0.73291,0.629395
1541874455561981,-0.0761719,-0.667969,0.636719
1541874455582997,-0.078125,-0.67627,0.623535
1541874455604032,-0.074707,-0.730957,0.623047
1541874455622046,-0.0571289,-0.749512,0.64209
1541874455643062,-0.0131836,-0.749512,0.65332
1541874455665080,-0.0239258,-0.670898,0.648438
1541874455686077,0.0195313,-0.772949,0.653809
1541874455704107,0.0737305,-0.895996,0.674805
1541874455725126,0.124512,-0.953613,0.704102
1541874455741120,0.121582,-0.956543,0.705078
1541874455771146,0.129883,-0.969238,0.696289
1541874455785155,0.169434,-1.02051,0.694336
1541874455801168,0.244629,-1.07861,0.658203
1541874455824198,0.288086,-1.07471,0.604004
1541874455845218,0.295898,-0.943359,0.538574
1541874455861223,0.289551,-0.849121,0.496094
1541874455891257,0.358887,-0.806641,0.453613
1541874455905266,0.473145,-0.888672,0.422852
1541874455928281,0.536621,-0.821289,0.349121
1541874455943279,0.52832,-0.764648,0.29541
1541874455964316,0.548828,-0.703613,0.234863
1541874455981328,0.564453,-0.65332,0.196289
1541874456003336,0.560547,-0.598633,0.164551
1541874456024362,0.620605,-0.564941,0.13623
1541874456041358,0.724609,-0.597168,0.0791016
1541874456064393,0.74707,-0.638184,0.0825195
1541874456092418,0.748047,-0.637207,0.10791
1541874456108409,0.743164,-0.56543,0.126953
1541874456131429,0.727539,-0.513672,0.193359
1541874456206505,0.729492,-0.511719,0.206055
1541874456209507,0.774902,-0.524902,0.184082
1541874456237510,0.848633,-0.552734,0.174805
1541874456239532,0.911133,-0.494629,0.217285
1541874456245517,0.90332,-0.47998,0.239746
1541874456264551,0.896973,-0.522461,0.248047
1541874456281564,0.902832,-0.561035,0.24707
1541874456311589,0.898926,-0.533203,0.247559
1541874456332604,0.894531,-0.518066,0.253418
1541874456341613,0.888672,-0.529297,0.267578
1541874456371635,0.884277,-0.527832,0.278809
1541874456447712,0.911133,-0.527832,0.283203
1541874456498730,0.944336,-0.516602,0.283691
1541874456552777,1.0835,-0.455078,0.29248
1541874456641828,1.18848,-0.399902,0.308105
1541874456655838,1.20947,-0.38623,0.303711
1541874456686863,0.92041,-0.20459,0.28418
1541874456688865,0.789063,-0.106934,0.26416
1541874456717888,0.754395,-0.0410156,0.25
1541874456729911,0.79834,-0.0805664,0.222656
1541874456860000,0.849609,-0.140137,0.211426
1541874456865004,0.835449,-0.146484,0.174316
1541874456912061,0.753906,-0.17041,0.206543
1541874456935059,0.743652,-0.208496,0.211914
1541874456966138,0.737305,-0.317383,0.250977
1541874456995124,0.742188,-0.353027,0.271484
1541874457016177,0.763184,-0.364746,0.310547
1541874457068220,0.778809,-0.414063,0.317383
1541874457143221,0.790039,-0.4375,0.328125
1541874457152244,0.811035,-0.419434,0.339355
1541874457182315,0.98584,-0.349121,0.318359
1541874457183255,1.13135,-0.282715,0.325684
1541874457205290,1.14014,-0.268066,0.336426
1541874457209288,1.15283,-0.245605,0.350098
1541874457228303,1.11133,-0.226563,0.362793
1541874457256310,1.0127,-0.180664,0.381348
1541874457271324,0.924805,-0.148926,0.419922
1541874457301347,0.934082,-0.246582,0.433594
1541874457324383,0.924316,-0.313477,0.40332
1541874457326385,0.91748,-0.1875,0.315918
1541874457452467,0.95459,-0.0512695,0.210938
1541874457474501,0.957031,-0.0273438,0.145508
1541874457489513,0.932617,-0.0419922,0.18457
1541874457491495,0.875977,-0.0566406,0.236328
1541874457504520,0.839844,-0.109375,0.251465
1541874457527542,0.836426,-0.183105,0.245605
1541874457564563,0.836426,-0.237793,0.227051
1541874457625611,0.837402,-0.294434,0.222168
1541874457639630,0.84668,-0.335449,0.216309
1541874457676697,0.823242,-0.367188,0.229492
1541874457679665,0.833008,-0.366211,0.235352
1541874457708686,0.85498,-0.360352,0.23291
1541874457719694,0.875977,-0.35791,0.241211
1541874457731703,0.931641,-0.382813,0.233398
1541874457751754,0.986328,-0.413086,0.213379
1541874457773717,1.04932,-0.422363,0.212402
1541874457788729,1.10693,-0.439453,0.200195
1541874457817754,1.14502,-0.462402,0.19043
1541874457833764,1.11768,-0.438477,0.205566
1541874457856796,1.06543,-0.355469,0.237305
1541874457894823,0.949707,-0.303711,0.251953
1541874458096990,0.852051,-0.247559,0.230469
1541874458098988,0.883789,-0.239258,0.134277
1541874458105983,0.932617,-0.316895,0.0976563
1541874458118988,0.846191,-0.216309,0.206543
1541874458140023,0.848633,-0.277832,0.195801
1541874458149013,0.832031,-0.324707,0.183105
1541874458170048,0.794434,-0.349609,0.179199
1541874458194084,0.788086,-0.332031,0.193359
1541874458223090,0.757813,-0.299316,0.204102
1541874458237101,0.740234,-0.290527,0.209473
1541874458246088,0.771973,-0.307129,0.223633
1541874458269145,0.798828,-0.325195,0.237793
1541874458299145,0.812012,-0.314453,0.219727
1541874458323171,0.845215,-0.281738,0.205078
1541874458367202,0.851563,-0.27002,0.193848
1541874458369184,0.825684,-0.261719,0.183594
1541874458374204,0.783203,-0.226074,0.193359
1541874458397226,0.756348,-0.190918,0.19873
1541874458412238,0.754883,-0.15332,0.202637
1541874458457273,0.769043,-0.144531,0.196289
1541874458472285,0.847168,-0.168945,0.177734
1541874458478280,0.949707,-0.171387,0.169922
1541874458496304,1.05811,-0.145508,0.145996
1541874458509313,1.09033,-0.0595703,0.147949
1541874458530366,1.05811,0.00976563,0.150391
1541874458546323,1.07324,0.0400391,0.135254
1541874458570361,1.15576,0.043457,0.116211
1541874458593361,1.24854,0.0141602,0.103027
1541874458616393,1.31055,-0.0429688,0.11084
1541874458636394,1.32031,-0.114258,0.120605
1541874458652410,1.24316,-0.180664,0.132813
1541874458667439,1.11914,-0.171875,0.123535
1541874458688455,0.976563,-0.222168,0.14502
1541874458694441,0.839355,-0.328613,0.189453
1541874458716477,0.769043,-0.381836,0.23584
1541874458742479,0.718262,-0.381348,0.254395
1541874458761507,0.708008,-0.418457,0.256836
1541874458803545,0.753906,-0.494141,0.283203
1541874458816560,0.772461,-0.549805,0.280273
1541874458818537,0.820801,-0.561035,0.27832
1541874458839553,0.841797,-0.546875,0.275391
1541874458862592,0.845215,-0.539551,0.276367
1541874458915629,0.883301,-0.551758,0.271484
1541874458937630,0.950684,-0.587402,0.27832
1541874458952643,1.14307,-0.60498,0.219238
1541874458974713,1.1416,-0.543945,0.215332
1541874459002716,1.09229,-0.49707,0.215332
1541874459057735,1.05762,-0.490234,0.217285
1541874459063745,1.04248,-0.489746,0.217773
1541874459086803,1.04395,-0.457031,0.243164
1541874459089805,1.07324,-0.400391,0.239258
1541874459101779,1.08203,-0.320313,0.23584
1541874459124797,1.04932,-0.206543,0.232422
1541874459145808,1.0127,-0.104492,0.225098
1541874459154802,1,-0.0327148,0.20752
1541874459174829,0.96582,0.0180664,0.1875
1541874459204897,0.927246,0.00683594,0.163086
1541874459212866,0.880371,-0.0483398,0.132324
1541874459241889,0.844727,-0.0869141,0.117676
1541874459256900,0.820313,-0.144043,0.118652
1541874459272905,0.814941,-0.184082,0.126953
1541874459293930,0.805176,-0.199707,0.151855
1541874459316948,0.80957,-0.205566,0.166504
1541874459332943,0.813477,-0.228027,0.172852
1541874459353977,0.830566,-0.250977,0.196777
1541874459376995,0.84668,-0.26416,0.205078
1541874459395005,0.869629,-0.275391,0.219238
1541874459414011,0.893555,-0.286133,0.210938
1541874459437042,0.928223,-0.296875,0.225098
1541874459453048,0.963379,-0.317871,0.229492
1541874459474071,1.00928,-0.339844,0.267578
1541874459497089,1.05859,-0.324707,0.27002
1541874459521108,1.09521,-0.288574,0.274414
1541874459534121,1.12256,-0.242676,0.269531
1541874459557139,1.12939,-0.184082,0.276367
1541874459579150,1.12012,-0.164063,0.275391
1541874459594166,1.09668,-0.107422,0.305176
1541874459617184,1.06592,-0.129395,0.321289
1541874459635194,0.972168,-0.125,0.322266
1541874459657196,0.853516,-0.117676,0.32373
1541874459677230,0.800781,-0.0991211,0.29248
1541874459701287,0.792969,-0.0776367,0.239746
1541874459730273,0.845215,-0.0209961,0.188965
1541874459740262,0.902344,0.0102539,0.146484
1541874459762298,0.966797,0.0371094,0.129883
1541874459774307,0.995605,0.0302734,0.105957
1541874459797327,1.00195,0.0136719,0.106445
1541874459814374,0.991699,0.0253906,0.131836
1541874459836352,0.961426,0.0166016,0.141113
1541874459859408,0.975098,-0.0195313,0.152344
1541874459888432,0.952637,-0.106934,0.178223
1541874459894437,0.909668,-0.220215,0.179199
1541874459917419,0.867676,-0.339844,0.170898
1541874459934428,0.822266,-0.430664,0.16748
1541874459961455,0.790039,-0.450195,0.175293
1541874459979450,0.76709,-0.433105,0.183594
1541874459994478,0.798828,-0.40625,0.203613
1541874460021537,0.833008,-0.389648,0.219727
1541874460032511,0.861816,-0.383789,0.217773
1541874460054509,0.880859,-0.361328,0.21582
1541874460074543,0.906738,-0.383301,0.224609
1541874460092554,0.940918,-0.419922,0.240723
1541874460114565,0.987793,-0.401855,0.227051
1541874460135584,1.04395,-0.391113,0.229004
1541874460164614,1.08203,-0.420898,0.233398
1541874460173621,1.14502,-0.483398,0.24707
1541874460194640,1.13965,-0.45459,0.268555
1541874460217651,1.02686,-0.420898,0.257324
1541874460233665,0.990234,-0.396973,0.212891
1541874460254719,1.00781,-0.38623,0.157227
1541874460278699,1.01318,-0.32373,0.121582
1541874460293696,0.985352,-0.239258,0.121582
1541874460314768,0.968262,-0.186523,0.130371
1541874460330724,0.964355,-0.143066,0.152344
1541874460353743,0.967285,-0.13623,0.161621
1541874460374815,0.98291,-0.15918,0.16748
1541874460390773,0.974609,-0.172363,0.152344
1541874460413791,0.949707,-0.187988,0.146973
1541874460434827,0.891602,-0.191895,0.133301
1541874460450820,0.816895,-0.187012,0.130371
1541874460473841,0.750488,-0.171387,0.14502
1541874460496856,0.69043,-0.19043,0.163086
1541874460510868,0.663574,-0.256836,0.165039
1541874460533884,0.688477,-0.323242,0.164551
1541874460556918,0.708496,-0.384277,0.172852
1541874460570935,0.720703,-0.414063,0.188965
1541874460593932,0.763184,-0.437012,0.208008
1541874460616966,0.821289,-0.447266,0.246094
1541874460637982,0.868652,-0.449219,0.28125
1541874460653989,0.905273,-0.421387,0.314941
1541874460677017,0.960938,-0.342285,0.332031
1541874460698027,1.03271,-0.277832,0.323242
1541874460714045,1.10156,-0.214355,0.307129
1541874460736045,1.15234,-0.161621,0.304199
1541874460758062,1.18018,-0.153809,0.291504
1541874460774089,1.21143,-0.163574,0.289063
1541874460796148,1.2041,-0.204102,0.298828
1541874460817129,1.17285,-0.201172,0.324219
1541874460834141,1.10889,-0.189453,0.325195
1541874460856157,1.03711,-0.159668,0.332031
1541874460877174,0.999512,-0.163086,0.319824
1541874460894187,0.924316,-0.215332,0.29248
1541874460917197,0.847168,-0.228516,0.289063
1541874460937256,0.875977,-0.258789,0.253906
1541874460954236,1.00293,-0.163574,0.1875
1541874460976247,1.08301,-0.0683594,0.127441
1541874460997251,1.10693,-0.00634766,0.112793
1541874461014298,1.07324,-0.015625,0.125
1541874461036281,1.03955,-0.0737305,0.130859
1541874461057315,1.02441,-0.123535,0.124512
1541874461074328,1.02734,-0.146973,0.111816
1541874461096328,0.999023,-0.16748,0.105957
1541874461117346,0.924316,-0.217773,0.115234
1541874461134411,0.842285,-0.283691,0.130859
1541874461156374,0.762695,-0.369629,0.133789
1541874461177410,0.716797,-0.431641,0.150879
1541874461193421,0.70752,-0.45459,0.143066
1541874461216421,0.707031,-0.441406,0.156738
1541874461237457,0.686523,-0.416016,0.169434
1541874461253469,0.672363,-0.40625,0.186035
1541874461276483,0.664551,-0.422363,0.213379
1541874461297504,0.649902,-0.471191,0.248047
1541874461313517,0.664551,-0.535645,0.263184
1541874461336515,0.699707,-0.57666,0.287598
1541874461357551,0.750488,-0.629395,0.293945
1541874461373558,0.793457,-0.657715,0.294922
1541874461396563,0.849121,-0.619141,0.293457
1541874461418599,0.913086,-0.574707,0.293945
1541874461433606,0.963867,-0.574707,0.273926
1541874461456611,0.981445,-0.611816,0.26123
1541874461478636,0.994141,-0.605469,0.238281
1541874461499662,1.00439,-0.543945,0.213379
1541874461516676,0.998047,-0.476563,0.188965
1541874461538693,1.00439,-0.395508,0.133301
1541874461560725,1.01514,-0.320313,0.119629
1541874461576719,1.00586,-0.244629,0.143066
1541874461598735,1.00049,-0.220703,0.178223
1541874461619792,0.973145,-0.230469,0.211914
1541874461636751,0.94043,-0.242188,0.226563
1541874461659796,0.922852,-0.249023,0.219238
1541874461679803,0.915039,-0.22168,0.205078
1541874461696817,0.901855,-0.154785,0.195801
1541874461720836,0.88623,-0.13623,0.189453
1541874461739851,0.844727,-0.149414,0.189453
1541874461756865,0.792969,-0.172852,0.175293
1541874461778879,0.756348,-0.182129,0.185547
1541874461807905,0.751953,-0.223633,0.187988
1541874461816932,0.769531,-0.255371,0.203125
1541874461838912,0.804199,-0.29834,0.216309
1541874461859945,0.828613,-0.333984,0.216309
1541874461876954,0.871582,-0.376953,0.231934
1541874461898959,0.901855,-0.381836,0.237793
1541874461919992,0.922363,-0.352539,0.264648
1541874461936987,0.967285,-0.292969,0.293457
1541874461959004,1.01221,-0.263672,0.310547
1541874461980020,1.05322,-0.24707,0.310547
1541874461997056,1.08691,-0.256836,0.320313
1541874462019051,1.09863,-0.250488,0.311035
1541874462040068,1.10352,-0.22998,0.289063
1541874462057095,1.08887,-0.20166,0.304688
1541874462079109,1.05127,-0.189453,0.325195
1541874462100134,1.02441,-0.208496,0.328613
1541874462116147,0.972656,-0.210449,0.330078
1541874462139164,0.9375,-0.217285,0.333984
1541874462160182,0.950684,-0.239258,0.314941
1541874462176175,0.91748,-0.192871,0.290039
1541874462199193,0.925293,-0.120117,0.258301
1541874462220226,0.983887,-0.0234375,0.221191
1541874462236243,1.0498,0.0253906,0.189453
1541874462259240,1.08105,0.0112305,0.171387
1541874462280257,1.0835,-0.0219727,0.151367
1541874462296269,1.07227,-0.0498047,0.150879
1541874462319287,1.01074,-0.0708008,0.153809
1541874462341304,0.943359,-0.0805664,0.160156
1541874462356316,0.89502,-0.0864258,0.164551
1541874462379390,0.841309,-0.101563,0.141602
1541874462401352,0.851563,-0.125977,0.0742188
1541874462416364,0.864258,-0.200684,0.0595703
1541874462439415,0.867676,-0.245117,0.0888672
1541874462461401,0.827637,-0.234375,0.0888672
1541874462482415,0.785645,-0.252441,0.10791
1541874462499429,0.73584,-0.333496,0.109863
1541874462521445,0.73291,-0.428223,0.115234
1541874462542462,0.743652,-0.445313,0.120117
1541874462559476,0.752441,-0.446777,0.131348
1541874462581508,0.806152,-0.454102,0.130371
1541874462602529,0.855469,-0.500488,0.149414
1541874462619543,0.914063,-0.563477,0.17334
1541874462641540,1.01123,-0.563477,0.202148
1541874462662556,1.10791,-0.500977,0.256836
1541874462679570,1.11426,-0.461426,0.265625
1541874462701588,1.125,-0.423828,0.248535
1541874462724606,1.1084,-0.427734,0.225098
1541874462739646,1.06787,-0.384277,0.202637
1541874462761635,1.02441,-0.255371,0.187988
1541874462782651,1.02881,-0.161133,0.166992
1541874462799666,1.05322,-0.112793,0.148926
1541874462821681,1.05762,-0.0878906,0.181641
1541874462842698,1.04932,-0.0913086,0.223145
1541874462858711,1.02637,-0.112305,0.253418
1541874462881729,1.00488,-0.146484,0.254883
1541874462902745,0.979492,-0.128418,0.259766
1541874462918758,0.941895,-0.10791,0.253418
1541874462941791,0.911133,-0.118164,0.246094
1541874462962812,0.865723,-0.163086,0.234863
1541874462978816,0.799316,-0.177246,0.245605
1541874463001823,0.714355,-0.221191,0.229492
1541874463022895,0.671875,-0.226074,0.226563
1541874463038853,0.68457,-0.242676,0.225098
1541874463061871,0.695313,-0.257324,0.219727
1541874463082905,0.727051,-0.273926,0.200684
1541874463098919,0.772949,-0.308105,0.199219
1541874463121936,0.830566,-0.336426,0.205566
1541874463142953,0.870605,-0.328613,0.226563
1541874463158965,0.895508,-0.286133,0.250488
1541874463165956,0.931152,-0.210449,0.264648
1541874463186983,0.979492,-0.171387,0.28125
1541874463210006,1.00928,-0.154785,0.294922
1541874463226001,1.04004,-0.169434,0.306152
1541874463255022,1.05566,-0.158203,0.313477
1541874463270034,1.08984,-0.138184,0.314453
1541874463286064,1.11182,-0.141113,0.32959
1541874463307082,1.12598,-0.195801,0.345703
1541874463330100,1.11133,-0.254883,0.362793
1541874463345093,1.11133,-0.26416,0.366699
1541874463367130,1.08789,-0.207031,0.361328
1541874463389146,1.05957,-0.179199,0.358887
1541874463404158,1.05518,-0.159668,0.32666
1541874463427213,0.960449,-0.0947266,0.313965
1541874463449194,0.881836,-0.0717773,0.305664
1541874463464205,0.879883,-0.0458984,0.287109
1541874463487259,0.938477,-0.0449219,0.246582
1541874463509241,0.977051,-0.0644531,0.204102
1541874463526254,0.989746,-0.0776367,0.192383
1541874463550273,1.01123,-0.0400391,0.169434
1541874463569288,0.976074,-0.0249023,0.178223
1541874463584300,0.931641,-0.0336914,0.169922
1541874463607318,0.901855,-0.0649414,0.152344
1541874463629336,0.869629,-0.123535,0.134277
1541874463644346,0.882813,-0.158203,0.123047
1541874463667362,0.891602,-0.168457,0.121582
1541874463689363,0.868164,-0.193848,0.143066
1541874463704390,0.818359,-0.257813,0.145508
1541874463727393,0.783691,-0.306152,0.151855
1541874463751433,0.762207,-0.364746,0.164551
1541874463764438,0.780273,-0.411621,0.171387
1541874463787460,0.788574,-0.427734,0.1875
1541874463809460,0.777832,-0.411621,0.203125
1541874463824469,0.76416,-0.396973,0.199219
1541874463847542,0.80127,-0.431152,0.221191
1541874463869507,0.88623,-0.496582,0.219727
1541874463884571,0.961914,-0.513672,0.212402
1541874463910576,0.998047,-0.524414,0.210938
1541874463929572,1.01953,-0.518555,0.212891
1541874463946584,1.05127,-0.544434,0.208496
1541874463967595,1.08008,-0.574707,0.209961
1541874463984615,1.07715,-0.549316,0.209961
1541874464006613,1.02539,-0.481445,0.211914
1541874464026682,0.964844,-0.442383,0.217773
1541874464044644,0.950684,-0.430176,0.205078
1541874464065661,0.941406,-0.402832,0.203613
1541874464086678,0.903809,-0.359375,0.233398
1541874464104704,0.883789,-0.307129,0.263184
1541874464125757,0.893555,-0.274902,0.272949
1541874464146737,0.914551,-0.290039,0.285156
1541874464164736,0.92334,-0.290039,0.26709
1541874464185780,0.916016,-0.243164,0.24707
1541874464206789,0.906738,-0.201172,0.22998
1541874464224784,0.879883,-0.182129,0.204102
1541874464247821,0.839355,-0.186523,0.174805
1541874464266837,0.785645,-0.195801,0.169434
1541874464284833,0.759277,-0.229492,0.171875
1541874464307864,0.757813,-0.271484,0.179199
1541874464326885,0.769043,-0.307617,0.180176
1541874464344877,0.82373,-0.335449,0.201172
1541874464367911,0.862305,-0.351563,0.201172
1541874464386966,0.898926,-0.371094,0.224609
1541874464404925,0.910645,-0.367188,0.233398
1541874464427963,0.900879,-0.365234,0.260254
1541874464446977,0.899414,-0.363281,0.289551
1541874464464973,0.944336,-0.381348,0.30127
1541874464487992,0.976563,-0.382324,0.315918
1541874464507024,1.00049,-0.374512,0.332031
1541874464525031,1.01367,-0.35498,0.322266
1541874464548055,1.0166,-0.352051,0.312012
1541874464567072,1.03418,-0.350586,0.309082
1541874464585086,1.04883,-0.327148,0.288574
1541874464607103,1.05322,-0.286133,0.278809
1541874464629103,1.00586,-0.262207,0.260742
1541874464644113,0.950684,-0.26709,0.286133
1541874464667150,0.938477,-0.275879,0.251953
1541874464688151,0.970215,-0.236328,0.207031
1541874464704161,1.03418,-0.194824,0.129395
1541874464727199,1.06689,-0.0917969,0.0742188
1541874464748214,1.04395,-0.0419922,0.0380859
1541874464764208,1.00195,-0.0322266,0.0107422
1541874464787226,0.953125,-0.0361328,0.00195313
1541874464808297,0.907227,-0.0820313,0.0527344
1541874464824255,0.861816,-0.124512,0.0849609
1541874464847284,0.805176,-0.10498,0.0742188
1541874464875351,0.770508,-0.0708008,0.0722656
1541874464884321,0.744629,-0.111816,0.0478516
1541874464907320,0.763184,-0.206543,0.0400391
1541874464929338,0.799805,-0.271484,0.0488281
1541874464951374,0.812988,-0.300293,0.0644531
1541874464966386,0.821777,-0.334473,0.0839844
1541874464987402,0.838379,-0.402832,0.0820313
1541874465004404,0.851074,-0.459473,0.100586
1541874465026416,0.871094,-0.481445,0.111816
1541874465047485,0.866699,-0.491211,0.151367
1541874465070451,0.86377,-0.528809,0.190918
1541874465086492,0.842285,-0.550293,0.21582
1541874465107477,0.810059,-0.508301,0.244629
1541874465123490,0.780273,-0.550293,0.236328
1541874465146516,0.753906,-0.595215,0.234863
1541874465167543,0.716309,-0.608398,0.228516
1541874465183536,0.714844,-0.567871,0.216309
1541874465206568,0.715332,-0.577148,0.198242
1541874465229592,0.725098,-0.592285,0.171875
1541874465251607,0.775391,-0.578613,0.173828
1541874465266602,0.810547,-0.540527,0.195801
1541874465296627,0.801758,-0.557617,0.205566
1541874465303642,0.878418,-0.519043,0.202637
1541874465326651,0.886719,-0.499023,0.166504
1541874465349722,0.892578,-0.524414,0.157227
1541874465370684,0.945313,-0.529297,0.155273
1541874465386699,1.08398,-0.618164,0.14209
1541874465416721,1.14551,-0.59082,0.15332
1541874465447747,1.06348,-0.493164,0.205566
1541874465460811,0.988281,-0.373047,0.233398
1541874465468814,0.857422,-0.211914,0.239746
1541874465490797,0.748047,-0.114258,0.244141
1541874465506845,0.759766,-0.12793,0.204102
1541874465529824,0.855469,-0.214844,0.118164
1541874465557850,0.945313,-0.255859,0.103516
1541874465566858,0.970215,-0.282715,0.0966797
1541874465589864,0.958984,-0.276367,0.133301
1541874465611884,0.910645,-0.283691,0.169922
1541874465633910,0.856934,-0.294434,0.17334
1541874465656927,0.829102,-0.299316,0.161621
1541874465669938,0.814941,-0.316895,0.151367
1541874465686951,0.812988,-0.321777,0.140137
1541874465709005,0.825195,-0.331055,0.135254
1541874465731978,0.854004,-0.356934,0.145508
1541874465747000,0.875977,-0.37793,0.17334
1541874465769013,0.887207,-0.398438,0.202637
1541874465790033,0.883789,-0.432617,0.22998
1541874465807048,0.88916,-0.466309,0.234863
1541874465829073,0.897949,-0.42334,0.257813
1541874465850079,0.905762,-0.374512,0.256348
1541874465867093,0.902344,-0.331055,0.287109
1541874465889107,0.871094,-0.325684,0.308105
1541874465910127,0.847656,-0.351563,0.322266
1541874465926121,0.900879,-0.37793,0.314941
1541874465949144,0.970703,-0.412598,0.29834
1541874465970174,1.04932,-0.421875,0.272461
1541874465986169,1.20605,-0.431152,0.250488
1541874466009187,1.35352,-0.40332,0.192871
1541874466030221,1.33008,-0.259766,0.191895
1541874466046220,1.15625,-0.108398,0.236328
1541874466069232,0.944336,-0.0234375,0.241699
1541874466092306,0.770508,-0.00683594,0.220703
1541874466106272,0.738281,0.000976563,0.192871
1541874466129295,0.864258,-0.0170898,0.130859
1541874466152317,1.02197,-0.10498,0.0961914
1541874466166328,1.11914,-0.253906,0.0869141
1541874466189337,1.12744,-0.353516,0.0991211
1541874466219357,1.10059,-0.349609,0.133301
1541874466226375,1.02637,-0.321777,0.163086
1541874466249375,0.933594,-0.29248,0.19043
1541874466272406,0.852539,-0.282227,0.207031
1541874466293409,0.790039,-0.331543,0.213379
1541874466309421,0.751953,-0.421875,0.204102
1541874466331458,0.732422,-0.469727,0.208008
1541874466353466,0.730957,-0.507324,0.223145
1541874466369488,0.725586,-0.51416,0.241699
1541874466392487,0.731445,-0.515137,0.253418
1541874466412558,0.750488,-0.518555,0.24707
1541874466429537,0.783691,-0.546875,0.231934
1541874466451555,0.835938,-0.520508,0.26123
1541874466480575,0.870605,-0.404785,0.252441
1541874466489583,0.837402,-0.380371,0.271484
1541874466511594,0.881348,-0.379883,0.233398
1541874466532651,0.944824,-0.438965,0.189941
1541874466549630,1.00293,-0.446777,0.172852
1541874466571649,1.03076,-0.420898,0.177246
1541874466600669,1.11328,-0.462402,0.211426
1541874466609656,1.27979,-0.562988,0.20459
1541874466631686,1.29492,-0.556152,0.229004
1541874466652710,1.125,-0.410645,0.242188
1541874466669723,0.91748,-0.158691,0.240234
1541874466691723,0.759277,0.0131836,0.234375
1541874466714746,0.728027,0.0185547,0.205078
1541874466736761,0.828613,-0.0131836,0.145996
1541874466759790,0.935547,-0.0561523,0.101074
1541874466772840,0.988281,-0.0869141,0.0688477
1541874466789853,1.01465,-0.114746,0.0795898
1541874466811826,0.969238,-0.18457,0.0917969
1541874466834845,0.924316,-0.240234,0.10791
1541874466849866,0.874512,-0.279785,0.13916
1541874466871873,0.82959,-0.283691,0.17627
1541874466892899,0.807617,-0.312988,0.195801
1541874466908912,0.837891,-0.334961,0.213379
1541874466931920,0.868652,-0.370117,0.237305
1541874466954942,0.883301,-0.383789,0.270508
1541874466976964,0.885742,-0.394043,0.288574
1541874466991977,0.88916,-0.388672,0.312012
1541874467012994,0.907715,-0.377441,0.335449
1541874467029005,0.899902,-0.369629,0.352539
1541874467052014,0.876953,-0.365723,0.362793
1541874467074044,0.887695,-0.373535,0.379883
1541874467097059,0.904297,-0.411133,0.380371
1541874467119074,0.933105,-0.448242,0.374023
1541874467142095,0.92334,-0.453125,0.39209
1541874467164111,0.973633,-0.474121,0.388184
1541874467172117,1.24316,-0.508789,0.36377
1541874467194132,1.41553,-0.385254,0.310547
1541874467209147,1.27539,-0.175293,0.308105
1541874467232165,1.02002,-0.0126953,0.3125
1541874467254171,0.844727,0.0649414,0.287109
1541874467275195,0.829102,0.0307617,0.25293
1541874467298217,0.95459,-0.0864258,0.223633
1541874467314211,1.11816,-0.249512,0.201172
1541874467335246,1.24756,-0.364258,0.189453
1541874467352260,1.2666,-0.397949,0.18457
1541874467374258,1.18652,-0.355957,0.211914
1541874467395294,1.09082,-0.333496,0.250488
1541874467412307,1.02393,-0.333984,0.280273
1541874467435307,0.964355,-0.359375,0.283691
1541874467455341,0.909668,-0.363281,0.294434
1541874467472353,0.872559,-0.373535,0.293945
1541874467494351,0.820313,-0.400879,0.277832
1541874467515388,0.786133,-0.428711,0.279297
1541874467532382,0.749023,-0.429199,0.27832
1541874467562424,0.698242,-0.428711,0.276367
1541874467592448,0.647949,-0.418457,0.275391
1541874467595445,0.588867,-0.412598,0.296875
1541874467598449,0.536133,-0.436523,0.325684
1541874467619470,0.569824,-0.489258,0.342773
1541874467642488,0.687012,-0.521484,0.347656
1541874467657500,0.810059,-0.472168,0.323242
1541874467679519,0.883301,-0.350098,0.291992
1541874467702535,0.954102,-0.327148,0.280273
1541874467720548,1.20264,-0.487793,0.241699
1541874467739598,1.24854,-0.562988,0.217285
1541874467771625,1.05078,-0.43457,0.258789
1541874467777593,0.949219,-0.29541,0.294434
1541874467799611,1.01514,-0.241699,0.283691
1541874467822629,1.11768,-0.259766,0.243164
1541874467837641,1.14502,-0.309082,0.202637
1541874467859642,1.125,-0.34668,0.182129
1541874467883668,1.09326,-0.376465,0.181152
1541874467897688,1.05371,-0.400391,0.164551
1541874467919705,1.01807,-0.414063,0.166504
1541874467942719,0.98291,-0.423828,0.178223
1541874467960737,0.950684,-0.442383,0.189941
1541874467982736,0.917969,-0.478516,0.214355
1541874468002766,0.94043,-0.463867,0.238281
1541874468017783,0.967285,-0.394531,0.258789
1541874468039801,0.973145,-0.36377,0.272949
1541874468062817,0.958496,-0.359863,0.290527
1541874468077830,0.89209,-0.393555,0.274414
1541874468099847,0.824707,-0.429199,0.279297
1541874468122865,0.775879,-0.436035,0.281738
1541874468144882,0.776367,-0.45166,0.283203
1541874468159895,0.82959,-0.469727,0.274902
1541874468177909,0.861816,-0.453613,0.267578
1541874468196923,0.865234,-0.44043,0.284668
1541874468219941,0.901367,-0.474609,0.290527
1541874468237956,1.0498,-0.515625,0.277344
1541874468257968,1.1582,-0.402832,0.266113
1541874468279989,0.986328,-0.219727,0.274902
1541874468298005,0.716309,-0.121582,0.29248
1541874468325007,0.630371,-0.143555,0.279785
1541874468340071,0.748047,-0.233887,0.254883
1541874468358050,1.07275,-0.357422,0.244141
1541874468380055,1.35889,-0.379395,0.238281
1541874468403080,1.47949,-0.313477,0.24707
1541874468418114,1.48242,-0.258789,0.276855
1541874468437112,1.41846,-0.248535,0.317871
1541874468460130,1.30518,-0.244629,0.334961
1541874468478136,1.17188,-0.234375,0.330566
1541874468497159,1.06104,-0.245605,0.311523
1541874468520177,0.981934,-0.30957,0.305664
1541874468538191,0.913574,-0.355469,0.286133
1541874468557241,0.844238,-0.416504,0.291504
1541874468580260,0.774414,-0.463379,0.281738
1541874468598238,0.722656,-0.484863,0.291016
1541874468617253,0.663574,-0.490234,0.291504
1541874468647312,0.622559,-0.484375,0.303223
1541874468658286,0.575684,-0.473145,0.327148
1541874468679303,0.57373,-0.485352,0.331543
1541874468700319,0.629883,-0.527832,0.342773
1541874468718332,0.718262,-0.529297,0.312012
1541874468740341,0.776367,-0.450684,0.30127
1541874468784421,0.787598,-0.419434,0.310059
1541874468787387,0.929199,-0.624023,0.290527
1541874468808389,1.03613,-0.694824,0.231445
1541874468827419,0.937988,-0.544434,0.248535
1541874468837426,0.8125,-0.317383,0.212891
1541874468859424,0.769531,-0.211426,0.220703
1541874468880444,0.930664,-0.340332,0.166992
1541874468898456,1.15039,-0.458984,0.0839844
1541874468918491,1.14063,-0.464355,0.0698242
1541874468939508,1.08057,-0.437012,0.111816
1541874468957521,1.02002,-0.394531,0.120117
1541874468980539,0.979492,-0.359863,0.140625
1541874468999550,0.962891,-0.394531,0.15918
1541874469017567,0.962402,-0.469238,0.144043
1541874469040586,1.00684,-0.526367,0.154297
1541874469060602,1.07471,-0.507813,0.163574
1541874469077607,1.10498,-0.429688,0.186035
1541874469099622,1.11133,-0.34668,0.188965
1541874469120684,1.0708,-0.321289,0.195801
1541874469136661,1.03662,-0.345215,0.231445
1541874469159696,0.980469,-0.413574,0.245117
1541874469180697,0.932617,-0.436523,0.246582
1541874469196689,0.904297,-0.475586,0.249512
1541874469219708,0.87207,-0.536621,0.249512
1541874469240742,0.870117,-0.560547,0.247559
1541874469256757,0.861816,-0.597656,0.262207
1541874469279757,0.847168,-0.627441,0.288574
1541874469300791,0.963867,-0.653809,0.28418
1541874469316797,1.17041,-0.595215,0.242676
1541874469339838,1.26953,-0.296875,0.250488
1541874469360837,1.17725,-0.0200195,0.282715
1541874469376853,0.992676,0.105469,0.263672
1541874469399863,0.901367,0.161133,0.228516
1541874469420920,0.953125,0.0981445,0.177246
1541874469436878,1.08057,-0.0634766,0.147461
1541874469459915,1.25146,-0.189941,0.0800781
1541874469480932,1.40723,-0.20459,0.0112305
1541874469496926,1.41113,-0.212891,0.0170898
1541874469519980,1.2666,-0.282715,0.0776367
1541874469540979,1.12451,-0.330566,0.115723
1541874469556971,1.02686,-0.361816,0.132813
1541874469580012,0.94043,-0.400391,0.141113
1541874469601026,0.865234,-0.446289,0.164551
1541874469617029,0.779297,-0.51123,0.151855
1541874469640057,0.741699,-0.594238,0.142578
1541874469661073,0.729492,-0.681152,0.111816
1541874469676081,0.725586,-0.626465,0.111816
1541874469700103,0.689941,-0.571777,0.126953
1541874469721120,0.619141,-0.551758,0.169434
1541874469736130,0.560547,-0.615234,0.182617
1541874469760132,0.521973,-0.662109,0.172363
1541874469781189,0.509766,-0.712891,0.168945
1541874469805198,0.540039,-0.768555,0.183594
1541874469819197,0.554688,-0.849609,0.179199
1541874469841196,0.538574,-0.879395,0.151855
1541874469856208,0.510742,-0.904297,0.208496
1541874469879245,0.467773,-0.949219,0.276367
1541874469909268,0.479004,-1.21973,0.258301
1541874469916266,0.592285,-1.21729,0.166016
1541874469939291,0.569824,-1.00635,0.253418
1541874469962309,0.408691,-0.817871,0.327148
1541874469984353,0.303711,-0.896484,0.333496
1541874470007327,0.301758,-0.991699,0.259766
1541874470022356,0.349121,-0.924316,0.216797
1541874470043374,0.352051,-0.853027,0.189941
1541874470067392,0.336426,-0.867188,0.171387
1541874470082392,0.293457,-0.842773,0.159668
1541874470103420,0.242676,-0.803711,0.178223
1541874470119414,0.191895,-0.776855,0.201172
1541874470142467,0.169434,-0.785645,0.210938
1541874470163468,0.175293,-0.785645,0.231445
1541874470179469,0.165039,-0.829102,0.20459
1541874470202498,0.15918,-0.860352,0.233887
1541874470223551,0.172363,-0.885742,0.245605
1541874470241528,0.17627,-0.90918,0.266113
1541874470262542,0.161133,-0.91748,0.300781
1541874470283598,0.151367,-0.925293,0.283691
1541874470299555,0.17627,-0.916992,0.280762
1541874470322592,0.191406,-0.896973,0.275879
1541874470343609,0.176758,-0.933594,0.243164
1541874470360624,0.185059,-0.933105,0.217773
1541874470382637,0.211914,-0.975098,0.155762
1541874470403656,0.221191,-1.04395,0.126465
1541874470419650,0.253906,-1.11719,0.104492
1541874470442697,0.296387,-1.29346,0.0756836
1541874470463696,0.411133,-1.40137,-0.0273438
1541874470479715,0.44043,-1.1626,0.0478516
1541874470501733,0.343262,-0.905273,0.078125
1541874470524733,0.288574,-0.827637,0.11377
1541874470539763,0.284668,-0.897461,0.0776367
1541874470563778,0.358887,-0.991699,0.03125
1541874470582833,0.384277,-1.08252,-0.000976563
1541874470599828,0.390137,-1.09033,-0.0336914
1541874470621827,0.39209,-1.05859,-0.0273438
1541874470642880,0.370117,-0.999023,0.00439453
1541874470658839,0.32666,-0.941406,0.0209961
1541874470681867,0.297852,-0.866699,0.0498047
1541874470702877,0.279297,-0.803223,0.0986328
1541874470718884,0.252441,-0.777832,0.0888672
1541874470741922,0.230469,-0.818848,0.0957031
1541874470762938,0.220215,-0.895508,0.090332
1541874470778932,0.217773,-0.953613,0.0683594
1541874470801951,0.229492,-1.00049,0.0595703
1541874470822987,0.25293,-1.01855,0.059082
1541874470838993,0.260254,-1.00391,0.0605469
1541874470862003,0.263672,-0.969727,0.0693359
1541874470885035,0.26416,-0.949219,0.102539
1541874470899045,0.256348,-0.95459,0.11084
1541874470922045,0.248535,-0.974609,0.116211
1541874470945081,0.258301,-0.97998,0.117676
1541874470959074,0.272949,-0.984863,0.115723
1541874470982091,0.278809,-1.02148,0.100098
1541874471005146,0.333496,-1.27881,0.0454102
1541874471026145,0.420898,-1.3208,0.0185547
1541874471042139,0.462891,-1.1001,0.0883789
1541874471065176,0.403809,-0.870117,0.104004
1541874471086193,0.337891,-0.731934,0.150879
1541874471102197,0.31543,-0.749023,0.149902
1541874471125219,0.320313,-0.843262,0.116699
1541874471146239,0.33252,-0.937988,0.0571289
1541874471162234,0.35791,-0.993164,0.0224609
1541874471185251,0.370605,-0.994141,0.0234375
1541874471206269,0.362305,-0.962891,0.043457
1541874471222300,0.329102,-0.936035,0.0908203
1541874471244317,0.31543,-0.918457,0.124023
1541874471266331,0.315918,-0.935547,0.144043
1541874471282347,0.320313,-0.9375,0.134766
1541874471304410,0.333008,-0.933105,0.101074
1541874471325381,0.336426,-0.904785,0.0917969
1541874471342394,0.335938,-0.882324,0.0893555
1541874471364418,0.311523,-0.89502,0.0961914
1541874471385408,0.311035,-0.887207,0.11084
1541874471402430,0.290039,-0.87207,0.114746
1541874471424451,0.273926,-0.875977,0.114258
1541874471445477,0.237305,-0.85791,0.102051
1541874471462491,0.285645,-0.899902,0.0805664
1541874471484487,0.32959,-0.949707,0.0595703
1541874471505522,0.349609,-0.962402,0.0219727
1541874471522535,0.390137,-1.00342,0.00292969
1541874471544540,0.408691,-1.04004,-0.00488281
1541874471565570,0.427734,-1.08496,-0.012207
1541874471581573,0.455566,-1.11182,-0.0146484
1541874471604590,0.475098,-1.08398,-0.0117188
1541874471625617,0.474121,-0.994629,0.0175781
1541874471641610,0.418945,-0.871582,0.0522461
1541874471664627,0.364258,-0.817871,0.0859375
1541874471685663,0.319824,-0.822754,0.0922852
1541874471701675,0.334961,-0.955078,0.065918
1541874471724674,0.432129,-1.01416,0.0288086
1541874471745711,0.487305,-1.03223,0.0180664
1541874471761719,0.562012,-1.00586,-0.0234375
1541874471784723,0.635742,-0.963379,-0.0273438
1541874471807755,0.648926,-0.866699,-0.0244141
1541874471821770,0.654785,-0.763672,-0.0185547
1541874471844784,0.63916,-0.702148,0.00732422
1541874471867798,0.620117,-0.693848,0.0185547
1541874471881817,0.611816,-0.718262,0.0175781
1541874471904835,0.61377,-0.759766,0.0112305
1541874471926853,0.605469,-0.756836,0.00244141
1541874471949871,0.604492,-0.736328,0.0117188
1541874471964882,0.612305,-0.73291,0.0112305
1541874471986936,0.648926,-0.754883,-0.00390625
1541874472007916,0.710938,-0.752441,-0.0146484
1541874472024929,0.763672,-0.744629,-0.0175781
1541874472046947,0.8125,-0.712891,0.000488281
1541874472052953,0.842773,-0.705566,0.0146484
1541874472074970,0.862305,-0.699707,0.034668
1541874472089982,0.883301,-0.689941,0.0634766
1541874472112999,0.88916,-0.662598,0.115723
1541874472131013,0.861816,-0.638184,0.152344
1541874472161037,0.845215,-0.612305,0.162109
1541874472173045,0.830078,-0.59668,0.162598
1541874472191060,0.836426,-0.550293,0.169922
1541874472210075,0.856445,-0.526367,0.179199
1541874472233094,0.89209,-0.522461,0.183105
1541874472251103,0.929199,-0.523438,0.187988
1541874472270122,0.94043,-0.513672,0.19043
1541874472293145,0.932617,-0.493164,0.199707
1541874472311136,0.90625,-0.452148,0.208496
1541874472330170,0.879395,-0.401367,0.223145
1541874472353184,0.861816,-0.363281,0.227051
1541874472369200,0.862305,-0.348633,0.233887
1541874472390217,0.870117,-0.334473,0.229492
1541874472415237,0.886719,-0.327637,0.233887
1541874472429247,0.887207,-0.339355,0.239258
1541874472450245,0.895996,-0.361816,0.252441
1541874472472282,0.875977,-0.381836,0.263184
1541874472489294,0.868652,-0.356934,0.274902
1541874472511306,0.874023,-0.320313,0.285156
1541874472532329,0.87207,-0.281738,0.288086
1541874472549337,0.869141,-0.254395,0.29834
1541874472570359,0.883789,-0.223633,0.29248
1541874472592412,0.894043,-0.212891,0.302246
1541874472609406,0.901855,-0.208496,0.303223
1541874472630405,0.905273,-0.212402,0.299316
1541874472652422,0.915039,-0.203125,0.296875
1541874472669440,0.920898,-0.20166,0.300293
1541874472690454,0.919922,-0.192871,0.296387
1541874472712470,0.921387,-0.20166,0.293945
1541874472731485,0.915039,-0.223633,0.29541
1541874472750501,0.90918,-0.230957,0.295898
1541874472780524,0.915039,-0.224609,0.290527
1541874472790511,0.921387,-0.211914,0.291992
1541874472810542,0.931641,-0.208008,0.286133
1541874472832565,0.933105,-0.197754,0.281738
1541874472850560,0.934082,-0.196777,0.277344
1541874472870594,0.9375,-0.187012,0.272461
1541874472892647,0.927734,-0.189453,0.269043
1541874472918632,0.919922,-0.179199,0.276367
1541874472930641,0.908691,-0.181152,0.282715
1541874472952660,0.919922,-0.193359,0.279785
1541874472970655,0.920898,-0.192383,0.27832
1541874472990688,0.92041,-0.183594,0.279785
1541874473008685,0.924805,-0.17627,0.282227
1541874473030702,0.921387,-0.19043,0.277344
1541874473050737,0.907715,-0.19873,0.276855
1541874473067749,0.891113,-0.174316,0.278809
1541874473090766,0.892578,-0.169922,0.271484
1541874473110774,0.90625,-0.1875,0.278809
1541874473127797,0.920898,-0.205566,0.279297
1541874473150814,0.930664,-0.194824,0.291504
1541874473169829,0.928711,-0.195801,0.299316
1541874473195850,0.915039,-0.186523,0.308594
1541874473210862,0.911133,-0.191406,0.30957
1541874473229875,0.905762,-0.208984,0.310547
1541874473252895,0.88916,-0.241699,0.319336
1541874473270910,0.861328,-0.258301,0.339355
1541874473291926,0.859863,-0.299805,0.351074
1541874473319950,0.864258,-0.320313,0.360352
1541874473330959,0.868652,-0.320801,0.373047
1541874473351972,0.865723,-0.322754,0.383301
1541874473372988,0.871094,-0.320801,0.39209
1541874473397999,0.880859,-0.331055,0.390137
1541874473412019,0.881836,-0.344238,0.395508
1541874473433036,0.845703,-0.318359,0.412598
1541874473451050,0.828125,-0.306641,0.400391
1541874473472067,0.851563,-0.320801,0.384766
1541874473493083,0.865234,-0.352051,0.381348
1541874473510097,0.881836,-0.343262,0.375977
1541874473531114,0.864258,-0.341309,0.390137
1541874473553130,0.833496,-0.348145,0.390137
1541874473577130,0.814453,-0.35791,0.388672
1541874473598166,0.826172,-0.365723,0.378906
1541874473607169,0.848145,-0.379395,0.348633
1541874473630190,0.878418,-0.378906,0.331055
1541874473651208,0.899902,-0.379883,0.314453
1541874473667220,0.916504,-0.38623,0.304688
1541874473690238,0.928711,-0.391602,0.291992
1541874473712235,0.916992,-0.406738,0.293945
1541874473727257,0.869629,-0.41748,0.306641
1541874473750286,0.835938,-0.438965,0.297363
1541874473772282,0.84375,-0.427734,0.280762
1541874473786314,0.886719,-0.459473,0.284668
1541874473810367,0.825195,-0.445313,0.312012
1541874473832330,0.876465,-0.464355,0.302246
1541874473853367,0.842773,-0.464844,0.296387
1541874473870380,0.830566,-0.486328,0.29248
1541874473892377,0.819336,-0.527832,0.276367
1541874473913415,0.830078,-0.521973,0.278809
1541874473930429,0.831055,-0.523926,0.292969
1541874473952444,0.838379,-0.497559,0.273438
1541874473966451,0.828125,-0.527344,0.310547
1541874473990464,0.877441,-0.53418,0.286133
1541874474012491,0.843262,-0.461426,0.290527
1541874474026499,0.790039,-0.463867,0.282227
1541874474049520,0.95166,-0.51123,0.277832
1541874474072538,0.812012,-0.607422,0.253418
1541874474093556,0.835449,-0.555176,0.275391
1541874474109564,0.82959,-0.501465,0.280762
1541874474132585,0.845703,-0.532227,0.269043
1541874474153638,0.870605,-0.581543,0.219727
1541874474169608,0.811523,-0.571777,0.213867
1541874474192633,0.776855,-0.533203,0.228027
1541874474213644,0.765625,-0.519043,0.235352
1541874474229646,0.733398,-0.534668,0.257324
1541874474252680,0.739258,-0.520508,0.242676
1541874474280702,0.730957,-0.483398,0.236816
1541874474289690,0.759277,-0.495605,0.226563
1541874474312728,0.785645,-0.536621,0.209473
1541874474333744,0.793457,-0.560547,0.191406
1541874474349746,0.807129,-0.567383,0.203613
1541874474372774,0.795898,-0.612793,0.206543
1541874474393826,0.79541,-0.667969,0.201172
1541874474409786,0.76416,-0.668457,0.213379
1541874474432823,0.728027,-0.682617,0.234863
1541874474453838,0.690918,-0.661133,0.22168
1541874474468850,0.691895,-0.64209,0.21875
1541874474492869,0.660156,-0.605957,0.202637
1541874474513885,0.675293,-0.579102,0.19873
1541874474529878,0.708496,-0.54248,0.202148
1541874474559901,0.768555,-0.472656,0.198242
1541874474573972,0.676758,-0.513672,0.197754
1541874474588945,0.552246,-0.681641,0.231445
1541874474612962,0.550293,-0.643066,0.211426
1541874474634972,0.57959,-0.616699,0.169434
1541874474657989,0.665039,-0.685547,0.140625
1541874474672009,0.787598,-0.782715,0.122559
1541874474695027,0.806152,-0.855469,0.143555
1541874474709043,0.716309,-0.865723,0.174805
1541874474732056,0.691406,-0.821289,0.197266
1541874474755074,0.706543,-0.806641,0.225586
1541874474776126,0.70166,-0.828125,0.242676
1541874474792104,0.72168,-0.854492,0.256836
1541874474815122,0.681152,-0.802246,0.256348
1541874474836137,0.71582,-0.71582,0.27002
1541874474852151,0.674805,-0.704102,0.280273
1541874474875168,0.704102,-0.725098,0.280762
1541874474896221,0.696777,-0.780273,0.291504
1541874474912194,0.730957,-0.802734,0.286621
1541874474935199,0.71875,-0.796875,0.332031
1541874474956232,0.717773,-0.728027,0.314453
1541874474972227,0.741699,-0.716309,0.326172
1541874474995263,0.888672,-0.750488,0.303223
1541874475016316,0.889648,-0.761719,0.317383
1541874475032275,0.782227,-0.774902,0.377441
1541874475055310,0.740234,-0.72168,0.336914
1541874475076327,0.781738,-0.635254,0.279297
1541874475092331,0.802734,-0.537109,0.22998
1541874475115357,0.78418,-0.429199,0.196777
1541874475136374,0.752441,-0.32373,0.202637
1541874475152378,0.734863,-0.224121,0.223145
1541874475175404,0.822754,-0.17334,0.224121
1541874475196422,0.887207,-0.17627,0.229004
1541874475212415,0.919922,-0.189453,0.233398
1541874475235451,0.903809,-0.245117,0.257324
1541874475256468,0.832031,-0.352051,0.286133
1541874475272465,0.786133,-0.407715,0.283203
1541874475295499,0.758789,-0.442871,0.264648
1541874475316515,0.726563,-0.451172,0.243164
1541874475331520,0.678223,-0.460938,0.231445
1541874475355538,0.653809,-0.51709,0.251465
1541874475376554,0.620605,-0.596191,0.292969
1541874475391556,0.630371,-0.586426,0.293945
1541874475414592,0.678223,-0.533203,0.286133
1541874475436602,0.708008,-0.505859,0.272461
1541874475451602,0.705566,-0.526855,0.297852
1541874475474675,0.725586,-0.556641,0.293457
1541874475496653,0.729004,-0.558594,0.272461
1541874475511650,0.757324,-0.507813,0.231934
1541874475534681,0.742676,-0.580566,0.225586
1541874475555703,0.732422,-0.708496,0.210938
1541874475571697,0.74707,-0.764648,0.199707
1541874475594725,0.733398,-0.776855,0.189941
1541874475617752,0.735352,-0.773438,0.181152
1541874475632764,0.740234,-0.751953,0.157227
1541874475654762,0.73291,-0.758301,0.147949
1541874475677798,0.706543,-0.807129,0.141113
1541874475698799,0.687012,-0.847168,0.158691
1541874475714825,0.663086,-0.924805,0.143066
1541874475737843,0.694336,-0.944824,0.0859375
1541874475765871,0.74707,-0.946289,0.0200195
1541874475774868,0.755371,-0.925293,-0.0170898
1541874475797894,0.711914,-0.911621,-0.0239258
1541874475818891,0.676758,-0.870605,-0.0463867
1541874475834903,0.663086,-0.948242,-0.0336914
1541874475857936,0.637207,-0.798828,-0.074707
1541874475878958,0.613281,-0.864258,-0.0581055
1541874475894952,0.546875,-0.867676,-0.0405273
1541874475917987,0.513184,-0.900391,-0.0424805
1541874475939005,0.494629,-0.956543,-0.0507813
1541874475954998,0.455566,-1.03125,-0.090332
1541874475978032,0.438965,-1.10645,-0.114258
1541874475999051,0.403809,-1.12207,-0.125977
1541874476015055,0.338379,-1.08594,-0.0898438
1541874476038076,0.272949,-1.08154,-0.0488281
1541874476059082,0.211426,-1.05762,-0.0273438
1541874476075093,0.124023,-1.0542,-0.00292969
1541874476098114,0.0551758,-1.05615,-0.00927734
1541874476119126,0.0200195,-1.0498,-0.0488281
1541874476135140,-0.00244141,-1.04102,-0.0864258
1541874476157171,0.0239258,-1.05371,-0.0883789
1541874476179190,-0.034668,-1.05469,-0.0512695
1541874476195200,-0.0932617,-1.03369,-0.0297852
1541874476217219,-0.0981445,-0.986816,-0.0458984
1541874476238240,-0.145996,-0.973145,-0.034668
1541874476255252,-0.243164,-0.950684,-0.0336914
1541874476277280,-0.290527,-0.97168,-0.0131836
1541874476298286,-0.288574,-0.972656,-0.0288086
1541874476314279,-0.325684,-0.935547,-0.0395508
1541874476337298,-0.319824,-0.927246,-0.104004
1541874476358334,-0.349121,-0.887207,-0.0893555
1541874476374327,-0.427246,-0.876953,-0.0512695
1541874476397362,-0.498535,-0.869141,0.0141602
1541874476418417,-0.602539,-0.773926,0.0883789
1541874476434375,-0.634766,-0.734863,0.100586
1541874476457394,-0.641113,-0.693848,0.109375
1541874476478419,-0.658203,-0.701172,0.0571289
1541874476494433,-0.679688,-0.662598,0.0493164
1541874476517449,-0.68457,-0.590332,0.0405273
1541874476523463,-0.741699,-0.538574,0.046875
1541874476545464,-0.779297,-0.582031,0.0327148
1541874476562486,-0.727051,-0.588379,0.0244141
1541874476583502,-0.793945,-0.506348,0.0498047
1541874476605528,-0.821777,-0.514648,0.0385742
1541874476621540,-0.747559,-0.568359,0.0429688
1541874476642557,-0.776855,-0.529785,0.0546875
1541874476665576,-0.82959,-0.514648,0.0341797
1541874476682573,-0.842773,-0.529297,0.0375977
1541874476702604,-0.868652,-0.532715,0.0380859
1541874476725622,-0.910156,-0.5,0.0625
1541874476741637,-0.945801,-0.472656,0.0742188
1541874476762647,-0.95752,-0.449219,0.0932617
1541874476794676,-0.960449,-0.446777,0.0981445
1541874476800682,-0.920898,-0.435059,0.0927734
1541874476822699,-0.915039,-0.416016,0.0991211
1541874476845717,-0.874023,-0.428223,0.097168
1541874476867769,-0.872559,-0.421875,0.0766602
1541874476882729,-0.855957,-0.44043,0.0795898
1541874476905799,-0.855957,-0.443359,0.0625
1541874476921765,-0.834473,-0.453613,0.0297852
1541874476945775,-0.793457,-0.498535,0.00634766
1541874476965810,-0.781738,-0.503906,0.0180664
1541874476980818,-0.811035,-0.518066,0.0488281
1541874477002835,-0.823242,-0.537109,0.0629883
1541874477025841,-0.689941,-0.628906,0.0366211
1541874477040859,-0.711914,-0.615234,0.0385742
1541874477062888,-0.771973,-0.647461,0.0561523
1541874477085909,-0.77832,-0.602051,0.0820313
1541874477101911,-0.717285,-0.711914,0.0634766
1541874477122933,-0.691895,-0.819336,0.0253906
1541874477145952,-0.647461,-0.831055,0.0239258
1541874477161956,-0.585938,-0.78418,0.0292969
1541874477182981,-0.550293,-0.82373,0.0307617
1541874477205995,-0.552734,-0.86084,0.0708008
1541874477221993,-0.373047,-0.911133,-0.00927734
1541874477243064,-0.330566,-0.957031,0.0078125
1541874477266038,-0.373535,-0.992676,0.0717773
1541874477282041,-0.316895,-0.958008,0.0541992
1541874477303076,-0.200195,-1.00684,0.0112305
1541874477334100,-0.154785,-1.08203,0.0385742
1541874477342102,-0.175781,-1.15576,0.090332
1541874477363119,-0.124512,-1.11426,0.0986328
1541874477386138,0.0429688,-1.02734,0.0498047
1541874477402155,0.185547,-1.11035,0.015625
1541874477423170,0.18457,-1.08594,0.0517578
1541874477445184,0.168945,-1.07471,0.103516
1541874477462201,0.255859,-0.922852,0.050293
1541874477483218,0.369629,-0.893555,0.0849609
1541874477505215,0.42041,-0.887207,0.0673828
1541874477523246,0.427246,-0.802734,0.0844727
1541874477543264,0.42627,-0.762695,0.0654297
1541874477561259,0.451172,-0.788574,0.0463867
1541874477583293,0.504395,-0.794434,0.046875
1541874477603312,0.537598,-0.860352,0.0561523
1541874477621326,0.580566,-0.915527,0.0981445
1541874477645325,0.624023,-0.929688,0.135742
1541874477663339,0.653809,-0.837402,0.148438
1541874477688361,0.682129,-0.79834,0.166016
1541874477703371,0.73291,-0.794434,0.182617
1541874477723441,0.702148,-0.799316,0.231445
1541874477741420,0.692383,-0.763184,0.266113
1541874477764433,0.70752,-0.71582,0.248535
1541874477783457,0.768066,-0.676758,0.21582
1541874477801463,0.805664,-0.662598,0.197754
1541874477823465,0.791504,-0.754395,0.243164
1541874477850502,0.761719,-0.787598,0.263184
1541874477861508,0.745605,-0.743652,0.276855
1541874477883513,0.765137,-0.685547,0.231934
1541874477912574,0.776855,-0.651367,0.203125
1541874477921547,0.750977,-0.625488,0.196289
1541874477943579,0.733887,-0.591309,0.200684
1541874477963594,0.756348,-0.597168,0.206055
1541874477979591,0.77832,-0.584473,0.197266
1541874478002605,0.804688,-0.567383,0.19043
1541874478023637,0.801758,-0.500488,0.158203
1541874478040637,0.807129,-0.488281,0.145508
1541874478062654,0.779785,-0.526367,0.163086
1541874478083688,0.751953,-0.59375,0.18457
1541874478100699,0.739746,-0.553223,0.190918
1541874478122700,0.728516,-0.564941,0.18457
1541874478143736,0.751953,-0.552734,0.152344
1541874478159749,0.751953,-0.584473,0.137207
1541874478182748,0.734863,-0.618652,0.163574
1541874478203819,0.706543,-0.687012,0.180176
1541874478219796,0.719238,-0.734375,0.166016
1541874478242795,0.750977,-0.753418,0.12793
1541874478263827,0.760254,-0.71875,0.0874023
1541874478279862,0.74707,-0.704102,0.0683594
1541874478302863,0.711426,-0.719238,0.078125
1541874478323877,0.696777,-0.797852,0.101074
1541874478339911,0.750977,-0.94043,0.0917969
1541874478362889,0.821289,-0.945801,0.0800781
1541874478383905,0.787109,-0.904785,0.0693359
1541874478399972,0.719727,-0.859863,0.0698242
1541874478422938,0.64502,-0.830566,0.078125
1541874478444953,0.596191,-0.827148,0.081543
1541874478460019,0.553711,-0.808105,0.0776367
1541874478483003,0.491699,-0.814453,0.0859375
1541874478505017,0.461914,-0.852539,0.0834961
1541874478520067,0.474609,-0.893555,0.059082
1541874478543049,0.458984,-0.926758,0.0415039
1541874478565055,0.469727,-0.964355,0.0239258
1541874478595072,0.495605,-0.992676,-0.00585938
1541874478603078,0.493652,-0.993652,-0.0415039
1541874478625094,0.466797,-1.00732,-0.0322266
1541874478646131,0.435059,-1.03174,-0.0400391
1541874478670130,0.380371,-1.00586,-0.0195313
1541874478693151,0.285645,-0.981934,0.00585938
1541874478707213,0.225586,-0.995605,0.0146484
1541874478724173,0.218262,-0.98291,-0.0249023
1541874478745199,0.172852,-0.994141,-0.0449219
1541874478768226,0.118652,-1.01514,-0.0795898
1541874478783238,0.0522461,-1.02002,-0.0854492
1541874478805237,0.000976563,-1.02441,-0.081543
1541874478826256,-0.00976563,-0.994141,-0.0791016
1541874478843280,-0.0756836,-0.980957,-0.0649414
1541874478865285,-0.13623,-0.989258,-0.0561523
1541874478886319,-0.145996,-1.00537,-0.0756836
1541874478902369,-0.171387,-0.991699,-0.0922852
1541874478925351,-0.197754,-0.99707,-0.101563
1541874478946369,-0.239746,-0.973145,-0.105957
1541874478962381,-0.3125,-0.968262,-0.10791
1541874478985378,-0.364258,-0.954102,-0.0893555
1541874479006394,-0.38623,-0.902344,-0.0639648
1541874479022407,-0.405273,-0.86084,-0.09375
1541874479045444,-0.42334,-0.839844,-0.0756836
1541874479073466,-0.441895,-0.848633,-0.109863
1541874479082474,-0.492188,-0.825684,-0.11377
1541874479105478,-0.496582,-0.833496,-0.129395
1541874479126509,-0.499512,-0.831055,-0.133789
1541874479150526,-0.47998,-0.830078,-0.133301
1541874479165538,-0.493164,-0.812012,-0.132324
1541874479186556,-0.507324,-0.833496,-0.128906
1541874479202563,-0.550293,-0.833496,-0.126465
1541874479225585,-0.571777,-0.836914,-0.121582
1541874479247584,-0.57666,-0.815918,-0.133301
1541874479262596,-0.59375,-0.816895,-0.123047
1541874479285625,-0.580566,-0.82666,-0.112305
1541874479306630,-0.600586,-0.815918,-0.125977
1541874479321644,-0.623047,-0.800781,-0.135254
1541874479352668,-0.625977,-0.796387,-0.160645
1541874479367680,-0.644043,-0.796387,-0.190918
1541874479388714,-0.650391,-0.783203,-0.200195
1541874479405728,-0.642578,-0.782715,-0.182617
1541874479427725,-0.622559,-0.780273,-0.181641
1541874479448756,-0.608398,-0.773926,-0.188965
1541874479465813,-0.610352,-0.782715,-0.207031
1541874479487772,-0.58252,-0.786133,-0.223633
1541874479516851,-0.581543,-0.792969,-0.232422
1541874479525845,-0.586914,-0.805176,-0.251465
1541874479547821,-0.596191,-0.823242,-0.251465
1541874479577843,-0.60791,-0.847656,-0.250977
1541874479585866,-0.598633,-0.849121,-0.231445
1541874479607877,-0.602051,-0.852539,-0.21582
1541874479621878,-0.589844,-0.867676,-0.19873
1541874479644915,-0.580566,-0.862305,-0.196777
1541874479667934,-0.561035,-0.869629,-0.202148
1541874479688985,-0.547363,-0.887695,-0.187012
1541874479704962,-0.500488,-0.886719,-0.171875
1541874479727963,-0.494141,-0.888184,-0.162109
1541874479748997,-0.474609,-0.928711,-0.162598
1541874479765006,-0.455078,-0.943848,-0.138184
1541874479788027,-0.447266,-0.95752,-0.106934
1541874479809045,-0.445313,-0.976074,-0.0732422
1541874479825038,-0.458008,-1.021,-0.0551758
1541874479855064,-0.470703,-1.02246,0.0112305
1541874479869087,-0.446777,-0.880859,0.126953
1541874479885101,-0.45459,-0.841797,0.206055
1541874479908157,-0.431641,-0.900391,0.200684
1541874479930120,-0.403809,-0.924805,0.175293
1541874479953193,-0.366699,-0.959961,0.154297
1541874479968150,-0.323242,-0.974121,0.15332
1541874479989221,-0.286621,-0.98291,0.194824
1541874480006180,-0.272949,-0.977539,0.233398
1541874480028252,-0.265625,-0.970215,0.263672
1541874480049232,-0.271973,-0.963867,0.26123
1541874480065226,-0.28125,-0.905762,0.263184
1541874480088299,-0.27832,-0.88916,0.231445
1541874480109261,-0.274902,-0.900391,0.216797
1541874480125276,-0.25293,-0.85498,0.197754
1541874480148294,-0.240234,-0.825684,0.171387
1541874480169366,-0.226074,-0.818848,0.135254
1541874480184370,-0.211426,-0.821289,0.113281
1541874480208360,-0.191406,-0.810547,0.0893555
1541874480229373,-0.18457,-0.811035,0.0756836
1541874480244366,-0.171387,-0.790039,0.0532227
1541874480268401,-0.163086,-0.770996,0.0405273
1541874480290404,-0.15918,-0.760742,0.0341797
1541874480304414,-0.145508,-0.742188,0.0458984
1541874480327432,-0.157227,-0.729004,0.0449219
1541874480350465,-0.16748,-0.763672,0.0375977
1541874480364461,-0.158691,-0.744141,0.0444336
1541874480387479,-0.152344,-0.723633,0.0673828
1541874480410497,-0.154785,-0.771484,0.0532227
1541874480424509,-0.160645,-0.831055,0.0205078
1541874480447580,-0.159668,-0.847168,-0.00537109
1541874480470560,-0.128906,-0.858887,-0.0180664
1541874480491616,-0.112793,-0.901367,-0.0512695
1541874480507602,-0.0976563,-1.00098,-0.0644531
1541874480537597,-0.0952148,-1.0459,-0.0722656
1541874480551663,-0.106445,-1.01465,-0.0771484
1541874480567621,-0.100098,-1.03027,-0.0981445
1541874480590677,-0.109863,-1.04688,-0.112305
1541874480611710,-0.100098,-1.05273,-0.107422
1541874480627668,-0.10498,-1.05176,-0.115234
1541874480650725,-0.10498,-1.0415,-0.134277
1541874480671721,-0.0932617,-1.07324,-0.150879
1541874480687714,-0.0883789,-1.09766,-0.158203
1541874480710733,-0.0942383,-1.15771,-0.157715
1541874480731769,-0.148438,-1.21191,-0.146973
1541874480747761,-0.200195,-1.22754,-0.132813
1541874480770800,-0.219727,-1.27393,-0.150391
1541874480791817,-0.294922,-1.31836,-0.120605
1541874480807810,-0.351074,-1.40674,-0.0859375
1541874480830849,-0.325684,-1.62207,-0.140625
1541874480851863,-0.273926,-1.76416,-0.181152
1541874480867857,-0.233887,-1.73438,-0.19043
1541874480890927,-0.214355,-1.64453,-0.186523
1541874480911909,-0.183105,-1.50439,-0.186035
1541874480927905,-0.17334,-1.34619,-0.145996
1541874480950932,-0.199219,-1.1665,-0.0942383
1541874480971958,-0.228027,-1.00391,-0.0556641
1541874480977962,-0.220215,-0.888184,-0.0576172
1541874480993010,-0.223633,-0.822266,-0.0390625
1541874481015992,-0.200684,-0.783203,-0.0283203
1541874481038046,-0.19873,-0.748047,0.000488281
1541874481053021,-0.217773,-0.771484,0.0126953
1541874481076039,-0.246094,-0.80127,0.0283203
1541874481098058,-0.270996,-0.822266,0.0341797
1541874481113104,-0.251465,-0.895996,0.015625
1541874481136069,-0.237793,-0.980957,0.0327148
1541874481158084,-0.242188,-1.05908,0.0649414
1541874481173152,-0.230957,-1.11621,0.0820313
1541874481196170,-0.217285,-1.11523,0.0732422
1541874481218187,-0.20752,-1.08057,0.0644531
1541874481235164,-0.202148,-1.05811,0.0561523
1541874481256181,-0.208984,-1.05518,0.0380859
1541874481278198,-0.245117,-1.01416,0.0541992
1541874481293210,-0.288086,-0.937988,0.0839844
1541874481316264,-0.305664,-0.873047,0.097168
1541874481338245,-0.314453,-0.82666,0.0869141
1541874481353258,-0.313477,-0.817871,0.0961914
1541874481376256,-0.324707,-0.84375,0.115234
1541874481398273,-0.338379,-0.864258,0.142578
1541874481413340,-0.369141,-0.886719,0.149414
1541874481436303,-0.408691,-0.885254,0.160645
1541874481454334,-0.450684,-0.872559,0.179688
1541874481473392,-0.45459,-0.900391,0.13623
1541874481496350,-0.415527,-0.95459,0.0751953
1541874481518381,-0.384277,-0.992676,0.0561523
1541874481533382,-0.357422,-0.961914,0.0644531
1541874481555396,-0.343262,-0.979004,0.0830078
1541874481578429,-0.279785,-1.03613,0.0424805
1541874481593446,-0.260254,-1.05762,0.0595703
1541874481615464,-0.251465,-1.09521,0.0703125
1541874481638481,-0.225586,-1.14063,0.0786133
1541874481653493,-0.212402,-1.16016,0.0996094
1541874481675494,-0.216309,-1.17725,0.124023
1541874481693504,-0.227051,-1.16602,0.137695
1541874481713540,-0.213379,-1.11963,0.134766
1541874481735558,-0.197754,-1.06787,0.103516
1541874481753553,-0.198242,-1.02783,0.0859375
1541874481773588,-0.195313,-1.00146,0.0673828
1541874481795585,-0.187012,-0.994141,0.0610352
1541874481813599,-0.183594,-0.955078,0.0825195
1541874481833615,-0.186035,-0.962402,0.0917969
1541874481855632,-0.186035,-0.936523,0.0922852
1541874481873648,-0.17627,-0.949219,0.0932617
1541874481894663,-0.178223,-0.941406,0.0947266
1541874481915734,-0.191406,-0.958496,0.0869141
1541874481933694,-0.180664,-0.969727,0.0756836
1541874481954725,-0.184082,-0.976074,0.0849609
1541874481975746,-0.158203,-0.972168,0.0869141
1541874481993741,-0.150879,-0.976563,0.112793
1541874482016813,-0.131348,-0.997559,0.140625
1541874482035777,-0.145996,-1.02295,0.174805
1541874482053788,-0.175781,-1.03955,0.174316
1541874482074805,-0.161133,-1.04346,0.163574
1541874482095821,-0.15332,-1.04346,0.158203
1541874482113835,-0.137207,-1.07959,0.15625
1541874482134851,-0.124512,-1.1499,0.179688
1541874482155871,-0.151855,-1.13525,0.230957
1541874482173897,-0.209961,-1.03076,0.290039
1541874482195900,-0.24707,-0.965332,0.295898
1541874482215934,-0.257813,-0.95752,0.260742
1541874482233948,-0.261719,-0.928223,0.221191
1541874482256009,-0.27832,-0.905273,0.20752
1541874482276017,-0.291992,-0.890137,0.201172
1541874482293991,-0.293945,-0.875977,0.208984
1541874482315994,-0.310059,-0.88916,0.233398
1541874482336009,-0.310059,-0.877441,0.242188
1541874482354024,-0.307617,-0.864258,0.231934
1541874482376040,-0.309082,-0.868164,0.224609
1541874482396057,-0.320801,-0.882813,0.232422
1541874482414086,-0.330078,-0.869141,0.239258
1541874482435107,-0.324707,-0.835938,0.228516
1541874482456104,-0.30957,-0.866211,0.208008
1541874482473118,-0.314941,-0.896484,0.180176
1541874482496136,-0.316895,-0.875,0.180176
1541874482516171,-0.318848,-0.85791,0.180176
1541874482533185,-0.310547,-0.887207,0.191406
1541874482555182,-0.294922,-0.894043,0.188965
1541874482570194,-0.29248,-0.865723,0.183105
1541874482593212,-0.287109,-0.864746,0.182129
1541874482615229,-0.25293,-0.884766,0.179688
1541874482636249,-0.23877,-0.898926,0.186523
1541874482653261,-0.225586,-0.921875,0.187012
1541874482675277,-0.209473,-0.926758,0.191406
1541874482704299,-0.203125,-0.929199,0.185059
1541874482713306,-0.168945,-0.972168,0.179199
1541874482735323,-0.141602,-0.981445,0.186035
1541874482756340,-0.121094,-0.981934,0.200195
1541874482772353,-0.124023,-0.983398,0.21582
1541874482795372,-0.11377,-0.994141,0.217285
1541874482816443,-0.109863,-0.990723,0.21582
1541874482833401,-0.0932617,-0.975098,0.214844
1541874482855418,-0.0776367,-0.942383,0.20459
1541874482876434,-0.050293,-0.937012,0.188965
1541874482893448,0.0356445,-1.00244,0.184082
1541874482915465,0.185547,-1.0166,0.15625
1541874482936481,0.261719,-0.99707,0.136719
1541874482952530,0.234863,-0.994629,0.137207
1541874482975512,0.157715,-1.04834,0.149902
1541874482996528,0.0756836,-1.10547,0.160156
1541874483012556,0.034668,-1.11523,0.151367
1541874483035559,0.0517578,-1.08252,0.139648
1541874483056631,0.0424805,-1.03955,0.123047
1541874483072608,0.0478516,-1.00146,0.127441
1541874483095606,0.122559,-1.0083,0.0927734
1541874483116623,0.244141,-1.00537,0.059082
1541874483132650,0.350098,-0.943359,0.0439453
1541874483155654,0.453125,-0.982422,0.0175781
1541874483177671,0.494629,-0.966309,0.0488281
1541874483192737,0.452637,-0.964844,0.0908203
1541874483215716,0.460449,-0.98877,0.131836
1541874483237728,0.51123,-0.964355,0.149414
1541874483252785,0.597168,-0.922363,0.115234
1541874483275768,0.680176,-0.813477,0.0771484
1541874483297800,0.746094,-0.672852,0.0341797
1541874483318802,0.804688,-0.577637,0.00634766
1541874483335795,0.797852,-0.53125,0.0419922
1541874483357829,0.792969,-0.526367,0.050293
1541874483378843,0.85498,-0.549805,0.0776367
1541874483395881,0.946289,-0.550781,0.115723
1541874483417860,1.01465,-0.550293,0.174316
1541874483438931,0.998047,-0.529297,0.217773
1541874483455909,0.963867,-0.523926,0.229492
1541874483477917,0.927734,-0.48584,0.22168
1541874483498943,0.927246,-0.470703,0.196777
1541874483515937,0.928223,-0.460938,0.178223
1541874483537954,0.864746,-0.507813,0.144531
1541874483558970,0.833984,-0.558594,0.147949
1541874483575984,0.799805,-0.584961,0.154297
1541874483598001,0.779297,-0.591797,0.158691
1541874483619017,0.784668,-0.561523,0.157227
1541874483636051,0.816895,-0.530762,0.145508
1541874483658049,0.80127,-0.540039,0.163574
1541874483679084,0.822754,-0.504883,0.142578
1541874483696099,0.833984,-0.502441,0.137207
1541874483718096,0.828125,-0.501465,0.134766
1541874483739166,0.827637,-0.537598,0.134766
1541874483756143,0.839844,-0.553711,0.128906
1541874483778162,0.86084,-0.552734,0.132324
1541874483799208,0.853027,-0.541992,0.130371
1541874483815227,0.874512,-0.51123,0.125977
1541874483838205,0.871094,-0.481445,0.131348
1541874483859206,0.866699,-0.467773,0.142578
1541874483875218,0.849609,-0.45752,0.144531
1541874483898237,0.816406,-0.460938,0.172363
1541874483919256,0.813965,-0.45459,0.17627
1541874483935287,0.80957,-0.448242,0.194824
1541874483958304,0.80957,-0.45459,0.203125
1541874483979356,0.839355,-0.482422,0.199219
1541874483995332,0.84668,-0.51709,0.203125
1541874484018350,0.855469,-0.546387,0.187988
1541874484039402,0.857422,-0.554688,0.17627
1541874484055381,0.852051,-0.546387,0.157227
1541874484078398,0.852539,-0.541992,0.161621
1541874484100397,0.851074,-0.538574,0.15332
1541874484115426,0.869629,-0.520508,0.149902
1541874484138446,0.870605,-0.525879,0.152344
1541874484160453,0.878906,-0.521484,0.144531
1541874484175470,0.873535,-0.519531,0.142578
1541874484198527,0.87207,-0.499023,0.14502
1541874484220489,0.857422,-0.508301,0.151855
1541874484241521,0.851563,-0.514648,0.158691
1541874484258575,0.867676,-0.506836,0.167969
1541874484280552,0.861816,-0.476563,0.159668
1541874484301573,0.877441,-0.45752,0.152344
1541874484318579,0.882813,-0.490723,0.141602
1541874484340583,0.867188,-0.501465,0.162598
1541874484362621,0.869629,-0.501953,0.155762
1541874484378630,0.875,-0.487793,0.156738
1541874484400637,0.860352,-0.449707,0.175293
1541874484421667,0.856445,-0.421875,0.171387
1541874484438675,0.854492,-0.454102,0.15625
1541874484460698,0.852539,-0.489746,0.161133
1541874484481715,0.846191,-0.555176,0.166992
1541874484498729,0.830566,-0.612305,0.169434
1541874484520745,0.815918,-0.665039,0.166504
1541874484541761,0.803223,-0.692383,0.152832
1541874484557774,0.780273,-0.730469,0.154297
1541874484580793,0.759277,-0.730469,0.138672
1541874484601809,0.743652,-0.770508,0.135742
1541874484617820,0.720215,-0.799805,0.137207
1541874484640839,0.69043,-0.8125,0.126465
1541874484661856,0.65625,-0.857422,0.116699
1541874484677859,0.606934,-0.878906,0.113281
1541874484700887,0.584473,-0.899414,0.10498
1541874484721883,0.556641,-0.920898,0.10791
1541874484737896,0.51416,-0.919434,0.100098
1541874484760950,0.459961,-0.927734,0.0922852
1541874484781950,0.410645,-0.942383,0.0942383
1541874484797949,0.378906,-0.944824,0.0888672
1541874484820980,0.358398,-0.955566,0.0966797
1541874484841998,0.326172,-0.964844,0.106445
1541874484858005,0.26123,-0.991699,0.106934
1541874484881023,0.21582,-1.00098,0.101563
1541874484903025,0.181152,-0.990234,0.112305
1541874484917037,0.143066,-1.00537,0.113281
1541874484941110,0.0683594,-1.01416,0.11377
1541874484962091,0.00244141,-0.980469,0.112793
1541874484977087,-0.0078125,-0.980469,0.108398
1541874485001103,-0.0351563,-0.983887,0.114258
1541874485022119,-0.0717773,-0.978027,0.119141
1541874485037131,-0.0888672,-0.97998,0.101074
1541874485061170,-0.117188,-0.984863,0.0942383
1541874485083168,-0.130859,-0.973145,0.0976563
1541874485097231,-0.138184,-0.976074,0.0952148
1541874485121239,-0.167969,-0.975098,0.09375
1541874485143225,-0.202148,-0.972656,0.107422
1541874485157225,-0.233887,-0.949219,0.103027
1541874485181278,-0.306641,-0.934082,0.11084
1541874485203262,-0.31543,-0.936035,0.117188
1541874485224281,-0.317871,-0.930176,0.100098
1541874485240345,-0.359375,-0.917969,0.101563
1541874485263309,-0.355957,-0.913574,0.102051
1541874485284345,-0.376953,-0.896973,0.097168
1541874485300338,-0.443359,-0.916504,0.121094
1541874485323393,-0.407715,-0.915039,0.161133
1541874485344372,-0.416016,-0.811523,0.160156
1541874485360430,-0.397949,-0.759766,0.128418
1541874485383422,-0.421875,-0.829102,0.105469
1541874485404439,-0.380859,-0.92627,0.130859
1541874485420433,-0.324707,-0.936035,0.100586
1541874485426437,-0.325684,-0.98291,0.132813
1541874485448455,-0.322266,-0.94043,0.226074
1541874485471492,-0.306641,-1.03516,0.242676
1541874485486540,-0.302734,-1.07422,0.263672
1541874485508501,-0.335449,-1.0293,0.240234
1541874485531575,-0.348633,-0.984863,0.207031
1541874485546534,-0.37207,-0.968262,0.175293
1541874485568604,-0.384277,-0.979492,0.161621
1541874485591620,-0.38623,-0.956055,0.149902
1541874485606581,-0.39502,-0.956055,0.148926
1541874485628596,-0.389648,-0.962891,0.169434
1541874485651625,-0.398438,-0.939941,0.152832
1541874485666627,-0.397949,-0.946777,0.130371
1541874485688698,-0.384277,-0.955566,0.119141
1541874485706676,-0.371582,-0.952637,0.0996094
1541874485726681,-0.370605,-0.941895,0.0917969
1541874485748710,-0.371582,-0.908203,0.0888672
1541874485766705,-0.385742,-0.928223,0.0961914
1541874485785774,-0.387695,-0.937988,0.102539
1541874485808738,-0.395996,-0.935059,0.10791
1541874485826754,-0.409668,-0.902832,0.121582
1541874485845805,-0.422852,-0.882324,0.12207
1541874485868787,-0.44043,-0.878906,0.123535
1541874485886819,-0.458496,-0.890137,0.135254
1541874485905816,-0.476563,-0.891602,0.137207
1541874485928851,-0.462891,-0.888184,0.152344
1541874485944845,-0.44873,-0.898438,0.15918
1541874485973886,-0.430176,-0.908203,0.145996
1541874485991901,-0.428711,-0.912109,0.128418
1541874486006893,-0.424805,-0.927246,0.116699
1541874486025960,-0.415527,-0.920898,0.123535
1541874486048926,-0.400879,-0.93457,0.126953
1541874486066940,-0.399902,-0.916992,0.139648
1541874486086010,-0.382813,-0.909668,0.138672
1541874486108992,-0.363281,-0.910156,0.141113
1541874486127006,-0.331055,-0.904785,0.14502
1541874486146022,-0.319336,-0.927734,0.155762
1541874486169039,-0.312988,-0.961914,0.162598
1541874486187054,-0.314941,-0.964355,0.176758
1541874486206069,-0.307129,-0.952637,0.1875
1541874486229078,-0.280762,-0.937988,0.187012
1541874486247096,-0.285156,-0.912109,0.17627
1541874486266151,-0.290039,-0.925293,0.173828
1541874486289134,-0.304688,-0.93457,0.156738
1541874486307141,-0.305664,-0.962402,0.144531
1541874486326158,-0.306152,-0.966309,0.152832
1541874486348174,-0.322266,-0.96582,0.191406
1541874486366194,-0.335449,-0.97168,0.232422
1541874486386211,-0.330078,-1.01221,0.223145
1541874486409210,-0.337891,-0.975586,0.224121
1541874486426282,-0.351563,-0.950195,0.199219
1541874486446238,-0.366699,-0.882324,0.222168
1541874486468313,-0.351563,-0.858887,0.217285
1541874486486300,-0.308594,-0.887207,0.163574
1541874486506288,-0.276855,-0.895996,0.117188
1541874486528313,-0.261719,-0.899414,0.11377
1541874486546317,-0.272461,-0.924316,0.132813
1541874486566387,-0.260742,-0.971191,0.165527
1541874486588404,-0.233398,-1.00098,0.182617
1541874486606364,-0.252441,-0.986328,0.198242
1541874486629418,-0.285156,-0.962891,0.231934
1541874486648417,-0.32373,-0.958984,0.273438
1541874486666411,-0.358887,-0.958984,0.293457
1541874486687439,-0.368652,-0.94873,0.286133
1541874486708464,-0.368652,-0.932129,0.258789
1541874486726458,-0.380371,-0.92334,0.218262
1541874486747490,-0.395996,-0.924805,0.185059
1541874486768547,-0.395508,-0.927246,0.172852
1541874486786506,-0.412109,-0.887695,0.160645
1541874486807524,-0.429199,-0.875977,0.14209
1541874486828593,-0.464355,-0.918945,0.131836
1541874486846563,-0.47998,-0.940918,0.132813
1541874486867570,-0.487305,-0.935059,0.145996
1541874486889589,-0.458008,-0.910156,0.11377
1541874486905616,-0.441895,-0.875977,0.0849609
1541874486926634,-0.431641,-0.844727,0.0620117
1541874486949688,-0.429688,-0.821777,0.0302734
1541874486965647,-0.416016,-0.830566,0.0170898
1541874486988684,-0.439453,-0.865234,0.012207
1541874487009683,-0.46582,-0.901367,0.0195313
1541874487025693,-0.506836,-0.906738,0.0327148
1541874487048768,-0.529785,-0.901855,0.0517578
1541874487062723,-0.551758,-0.906738,0.0341797
1541874487085740,-0.555176,-0.925293,0.0229492
1541874487108778,-0.583496,-1.06006,-0.0532227
1541874487129788,-0.553711,-0.915039,-0.0473633
1541874487145788,-0.574219,-0.850586,-0.0141602
1541874487168827,-0.48584,-0.664063,0.046875
1541874487189826,-0.531738,-0.691895,0.0771484
1541874487213856,-0.52832,-1.00635,-0.0688477
1541874487228853,-0.463379,-0.942871,-0.019043
1541874487249870,-0.382324,-0.964844,-0.10791
1541874487265882,-0.414063,-0.861328,-0.059082
1541874487287899,-0.380371,-0.72998,-0.00878906
1541874487308915,-0.299316,-0.899902,-0.0078125
1541874487325929,-0.366211,-0.876953,-0.00195313
1541874487347949,-0.358887,-0.973633,0.0166016
1541874487369975,-0.316406,-1.01465,0.0078125
1541874487385988,-0.234863,-1.02588,0.0214844
1541874487408047,-0.165527,-1.07275,-0.0185547
1541874487429065,-0.17334,-1.09424,0.0161133
1541874487446023,-0.192383,-1.05566,0.0258789
1541874487468041,-0.151855,-1.01367,0.0180664
1541874487489112,-0.11377,-0.974121,0.00146484
1541874487506073,-0.0976563,-1.03564,0.0078125
1541874487528105,-0.0664063,-1.07275,-0.00634766
1541874487549104,-0.0454102,-1.04688,0.012207
1541874487566117,-0.0175781,-1.03271,0.027832
1541874487588134,0.0585938,-1.04443,0.0244141
1541874487609206,0.111328,-1.01953,0.00195313
1541874487626185,0.149902,-1.01367,0.0219727
1541874487648188,0.147461,-1.02441,0.0380859
1541874487669254,0.163574,-1,0.0317383
1541874487685221,0.164063,-0.996094,0.0419922
1541874487708231,0.202637,-1.01465,0.0605469
1541874487729249,0.247559,-1.04541,0.0898438
1541874487745260,0.23584,-1.04688,0.107422
1541874487768277,0.230469,-1.0083,0.0986328
1541874487789307,0.257813,-0.987305,0.108887
1541874487805306,0.3125,-1.01514,0.131348
1541874487828324,0.316406,-1.00586,0.133301
1541874487849356,0.342285,-0.932617,0.119629
1541874487865354,0.397461,-0.875,0.107422
1541874487888381,0.430176,-0.854492,0.111816
1541874487911409,0.475586,-0.862793,0.132813
1541874487925400,0.485352,-0.899902,0.144043
1541874487948432,0.614746,-0.950684,0.238281
1541874487971453,0.569336,-0.91748,0.326172
1541874487992456,0.400391,-0.814941,0.254883
1541874488008467,0.391602,-0.887695,0.182617
1541874488030485,0.433594,-1.07178,0.119141
1541874488051499,0.494141,-0.932617,0.0581055
1541874488068513,0.507324,-0.731445,0.0478516
1541874488090529,0.452637,-0.759277,0.126465
1541874488111546,0.345703,-0.844238,0.198242
1541874488128560,0.29834,-0.908691,0.193848
1541874488150577,0.327637,-1.01904,0.163574
1541874488171593,0.355469,-1.08398,0.134766
1541874488188609,0.363281,-1.01807,0.11377
1541874488210640,0.35498,-0.939941,0.100586
1541874488231660,0.378906,-0.928711,0.0888672
1541874488248673,0.418457,-0.935547,0.078125
1541874488270671,0.436035,-0.927734,0.0629883
1541874488291743,0.449219,-0.906738,0.0527344
1541874488308721,0.45459,-0.899902,0.0517578
1541874488330726,0.442871,-0.873535,0.0483398
1541874488351735,0.425781,-0.862305,0.0493164
1541874488368803,0.428223,-0.844727,0.0410156
1541874488390768,0.424805,-0.836914,0.0214844
1541874488411782,0.421875,-0.854004,0.0253906
1541874488428849,0.406738,-0.872559,0.0400391
1541874488450813,0.39209,-0.878418,0.0419922
1541874488471829,0.403809,-0.915039,0.027832
1541874488488857,0.414063,-0.958984,0.00976563
1541874488510860,0.42627,-0.986328,0.0112305
1541874488531895,0.439453,-1.01123,0.0229492
1541874488548909,0.446777,-1.01758,0.046875
1541874488570917,0.435547,-1.00781,0.0585938
1541874488591978,0.429688,-0.980957,0.0751953
1541874488608962,0.438477,-0.950195,0.0810547
1541874488630955,0.438477,-0.927734,0.0908203
1541874488652027,0.442383,-0.926758,0.0795898
1541874488668984,0.408203,-0.924316,0.0791016
1541874488691002,0.378906,-0.919434,0.0771484
1541874488712018,0.362793,-0.927734,0.0961914
1541874488728085,0.366211,-0.905762,0.0415039
1541874488751064,0.356934,-0.870117,0.0107422
1541874488772084,0.35498,-0.862793,-0.0161133
1541874488788115,0.337891,-0.977051,-0.00683594
1541874488811096,0.371094,-1.05957,0.0185547
1541874488833113,0.37793,-1.06641,0.0639648
1541874488848125,0.371094,-0.993652,0.0732422
1541874488871143,0.341797,-0.994141,0.0566406
1541874488893176,0.306152,-1.04736,0.0341797
1541874488908192,0.265625,-1.05518,0.0605469
1541874488931194,0.246094,-1.02295,0.0761719
1541874488953224,0.257324,-0.997559,0.0795898
1541874488974281,0.242188,-1,0.09375
1541874488991256,0.219238,-1,0.0898438
1541874489013271,0.194824,-0.99707,0.0849609
1541874489034289,0.182129,-0.99707,0.0791016
1541874489051294,0.175293,-1.00342,0.065918
1541874489073305,0.165527,-0.990234,0.0620117
1541874489094338,0.154785,-1.01025,0.0366211
1541874489111333,0.104004,-1.01416,0.0307617
1541874489133349,0.0791016,-1.02832,0.03125
1541874489154421,0.0668945,-1.04395,0.019043
1541874489171433,0.0498047,-1.03369,0.0219727
1541874489193411,0.0419922,-1.05273,0.0317383
1541874489214432,0.0224609,-1.0415,0.0283203
1541874489231441,-0.0234375,-1.0459,0.0405273
1541874489253442,-0.0678711,-1.05127,0.0327148
1541874489274479,-0.0893555,-1.0459,0.0126953
1541874489291483,-0.10791,-1.02539,0.0161133
1541874489313501,-0.144531,-1.01465,0.0136719
1541874489336538,-0.197754,-1.01709,0.0332031
1541874489350539,-0.234863,-1.0498,0.0136719
1541874489373538,-0.27002,-1.04883,0.00341797
1541874489394609,-0.294434,-1.01465,-0.00341797
1541874489410586,-0.345703,-0.991211,0.019043
1541874489433604,-0.375977,-0.998535,0.0078125
1541874489454621,-0.391113,-0.97998,0.0146484
1541874489470616,-0.475098,-0.924316,0.0224609
1541874489493646,-0.469238,-0.922852,0.00830078
1541874489514664,-0.458496,-0.899902,0.0214844
1541874489530671,-0.506348,-0.85791,0.0239258
1541874489560684,-0.502441,-0.835449,0.0273438
1541874489574750,-0.51123,-0.837402,0.00537109
1541874489590730,-0.534668,-0.827148,0.0195313
1541874489620732,-0.572754,-0.820313,0.0249023
1541874489634761,-0.61084,-0.78418,0.0292969
1541874489650811,-0.595703,-0.796387,0.0244141
1541874489673828,-0.617676,-0.794434,0.050293
1541874489694809,-0.661621,-0.763184,0.050293
1541874489716810,-0.668457,-0.736328,0.0517578
1541874489733875,-0.694336,-0.737305,0.027832
1541874489754856,-0.67334,-0.746582,0.0268555
1541874489770864,-0.688477,-0.740723,0.0283203
1541874489793887,-0.708496,-0.72168,0.0507813
1541874489815884,-0.712402,-0.709961,0.074707
1541874489830919,-0.740723,-0.71582,0.0737305
1541874489853934,-0.733398,-0.722168,0.065918
1541874489875933,-0.72168,-0.697266,0.0678711
1541874489881936,-0.716309,-0.699707,0.0732422
1541874489898970,-0.737305,-0.711914,0.0854492
1541874489918985,-0.747559,-0.687988,0.103516
1541874489941002,-0.748047,-0.676758,0.107422
1541874489958015,-0.755859,-0.646973,0.108398
1541874489979032,-0.765625,-0.659668,0.119629
1541874490002049,-0.758301,-0.645996,0.120117
1541874490018063,-0.764648,-0.626953,0.128906
1541874490039079,-0.773438,-0.623535,0.123047
1541874490061097,-0.785645,-0.620605,0.117188
1541874490078105,-0.78418,-0.618652,0.113281
1541874490099127,-0.786621,-0.616211,0.108398
1541874490121145,-0.797363,-0.610352,0.0996094
1541874490138157,-0.797852,-0.610352,0.0947266
1541874490159173,-0.807617,-0.603516,0.102539
1541874490181191,-0.820801,-0.602051,0.0996094
1541874490198205,-0.8125,-0.604004,0.112793
1541874490219222,-0.806641,-0.601074,0.118652
1541874490241239,-0.795898,-0.603027,0.125977
1541874490258251,-0.785156,-0.61377,0.140137
1541874490279269,-0.777832,-0.614746,0.137207
1541874490301266,-0.774902,-0.628418,0.142578
1541874490318294,-0.774414,-0.630859,0.143066
1541874490339296,-0.780762,-0.630859,0.134277
1541874490361368,-0.788086,-0.625977,0.147949
1541874490378346,-0.807129,-0.641602,0.139648
1541874490399362,-0.8125,-0.621582,0.140137
1541874490429387,-0.814453,-0.608887,0.133789
1541874490438393,-0.834473,-0.600586,0.116699
1541874490459409,-0.840332,-0.584473,0.113281
1541874490481410,-0.839844,-0.599121,0.112793
1541874490498466,-0.839355,-0.61084,0.112305
1541874490519454,-0.819336,-0.592285,0.111328
1541874490541475,-0.808105,-0.583496,0.120605
1541874490558470,-0.800781,-0.590332,0.120605
1541874490579496,-0.796875,-0.606934,0.118652
1541874490596517,-0.802246,-0.628418,0.111816
1541874490617569,-0.808594,-0.623047,0.109375
1541874490638550,-0.80957,-0.62207,0.0991211
1541874490656556,-0.807617,-0.620117,0.090332
1541874490677571,-0.800293,-0.624023,0.0874023
1541874490698598,-0.796875,-0.637207,0.0913086
1541874490716605,-0.800293,-0.640625,0.0996094
1541874490739629,-0.811523,-0.635742,0.0927734
1541874490758644,-0.817871,-0.625488,0.0981445
1541874490776641,-0.820313,-0.618652,0.090332
1541874490799677,-0.820313,-0.609375,0.102051
1541874490818692,-0.825195,-0.602051,0.10498
1541874490836688,-0.836914,-0.617676,0.103027
1541874490859724,-0.847168,-0.606445,0.109863
1541874490878739,-0.852539,-0.589844,0.119629
1541874490896736,-0.864258,-0.577148,0.121582
1541874490919770,-0.865234,-0.582031,0.122559
1541874490938770,-0.858398,-0.568848,0.135254
1541874490956782,-0.859375,-0.574707,0.119141
1541874490979802,-0.843262,-0.564453,0.105957
1541874490998833,-0.834961,-0.564453,0.100586
1541874491016829,-0.821777,-0.571777,0.11377
1541874491039866,-0.813477,-0.571289,0.121094
1541874491058880,-0.803223,-0.57373,0.129883
1541874491076876,-0.795898,-0.575195,0.125488
1541874491099897,-0.79834,-0.581543,0.113281
1541874491118963,-0.803223,-0.580566,0.106445
1541874491136923,-0.80957,-0.583008,0.104492
1541874491159941,-0.817871,-0.580566,0.108398
1541874491179011,-0.833008,-0.592285,0.116211
1541874491196970,-0.841309,-0.59375,0.11084
1541874491219993,-0.84375,-0.602539,0.110352
1541874491239004,-0.844727,-0.594727,0.11084
1541874491257032,-0.838867,-0.592285,0.11084
1541874491279053,-0.841797,-0.581543,0.11377
1541874491302069,-0.836914,-0.573242,0.111328
1541874491317080,-0.829102,-0.563477,0.104004
1541874491339101,-0.820801,-0.54834,0.11084
1541874491360117,-0.806152,-0.556152,0.115234
1541874491382170,-0.798828,-0.562988,0.104004
1541874491399129,-0.785156,-0.561035,0.106445
1541874491420145,-0.757324,-0.605957,0.0859375
1541874491435170,-0.762207,-0.620605,0.090332
1541874491459194,-0.743164,-0.667969,0.0917969
1541874491480203,-0.73584,-0.69043,0.11084
1541874491495204,-0.750977,-0.683105,0.12207
1541874491526243,-0.740723,-0.69043,0.128418
1541874491539257,-0.741699,-0.686035,0.128418
1541874491555254,-0.748047,-0.702637,0.121094
1541874491578284,-0.67334,-0.726074,0.0830078
1541874491600303,-0.68457,-0.696777,0.0820313
1541874491615315,-0.635254,-0.71875,0.0776367
1541874491646323,-0.619141,-0.740723,0.0883789
1541874491659366,-0.644043,-0.736816,0.0771484
1541874491675347,-0.592773,-0.786621,0.0668945
1541874491698365,-0.547363,-0.813477,0.0532227
1541874491721382,-0.51416,-0.827148,0.0493164
1541874491735393,-0.527832,-0.820313,0.078125
1541874491758429,-0.52832,-0.864258,0.078125
1541874491781449,-0.469727,-0.874512,0.0385742
1541874491802500,-0.359375,-0.916016,0.00634766
1541874491818475,-0.34668,-0.92334,0.0395508
1541874491841531,-0.318359,-0.942871,0.0595703
1541874491862512,-0.291016,-0.95752,0.0429688
1541874491878507,-0.174316,-1.07813,-0.027832
1541874491901543,-0.133789,-1.04785,0.00146484
1541874491922542,-0.132813,-1.01904,0.0161133
1541874491938554,-0.135254,-1.05908,0.0512695
1541874491961625,-0.0854492,-1.10693,0.0356445
1541874491982606,-0.0561523,-1.0835,0.027832
1541874491998599,-0.078125,-1.12207,0.0327148
1541874492021673,-0.0717773,-1.07813,0.0444336
1541874492042689,0.0600586,-0.976074,0.0078125
1541874492058646,0.0961914,-1.01172,0.000976563
1541874492081686,0.11084,-1.0874,0.00195313
1541874492102681,0.081543,-1.08008,0.0229492
1541874492118694,0.0986328,-1.04346,0.0297852
1541874492141712,0.118652,-1.02344,0.0268555
1541874492162744,0.133301,-1.04883,0.0273438
1541874492178760,0.129883,-1.06494,0.0273438
1541874492200773,0.160645,-1.0166,0.0327148
1541874492222791,0.203125,-0.993652,0.00976563
1541874492238803,0.244629,-0.998047,0.0166016
1541874492260820,0.255859,-0.984375,0.0288086
1541874492281823,0.27002,-0.966797,0.0361328
1541874492298835,0.30957,-0.958496,0.0229492
1541874492320907,0.327148,-0.950195,0.0205078
1541874492341888,0.334961,-0.952637,0.0307617
1541874492358902,0.334473,-0.960449,0.0566406
1541874492380900,0.338867,-0.961914,0.0581055
1541874492401970,0.372559,-1.01514,0.132813
1541874492417940,0.452637,-1.18213,0.202148
1541874492440947,0.412598,-1.11816,0.100098
1541874492462019,0.332031,-0.961914,0.166016
1541874492477975,0.306641,-1.05029,0.0776367
1541874492500996,0.35791,-0.998535,0.015625
1541874492522067,0.435059,-0.775391,-0.0141602
1541874492538023,0.464355,-0.730469,-0.0146484
1541874492561041,0.418457,-0.896973,0.0249023
1541874492582077,0.396973,-0.957031,0.0683594
1541874492598070,0.396484,-0.903809,0.074707
1541874492621088,0.415039,-0.867188,0.0927734
1541874492644127,0.398438,-0.908203,0.107422
1541874492659135,0.375,-0.974121,0.102539
1541874492681135,0.37207,-0.98291,0.105469
1541874492704175,0.361328,-0.957031,0.0986328
1541874492719177,0.370117,-0.925293,0.0917969
1541874492741183,0.373535,-0.933594,0.0844727
1541874492764222,0.378418,-0.942383,0.0854492
1541874492778232,0.390625,-0.930664,0.074707
1541874492801231,0.389648,-0.924316,0.0786133
1541874492824249,0.390137,-0.938965,0.0791016
1541874492838278,0.383789,-0.94873,0.0839844
1541874492861296,0.382813,-0.947754,0.0810547
1541874492884295,0.383301,-0.938965,0.0805664
1541874492898325,0.380371,-0.938965,0.0800781
1541874492921344,0.384277,-0.94873,0.0766602
1541874492943395,0.380859,-0.943848,0.0742188
1541874492958372,0.382324,-0.944336,0.074707
1541874492981372,0.381348,-0.936523,0.0825195
1541874493003404,0.383789,-0.936035,0.0761719
1541874493018437,0.391113,-0.930664,0.0825195
1541874493041422,0.384766,-0.936035,0.0878906
1541874493063446,0.378418,-0.942383,0.0810547
1541874493078467,0.378906,-0.944824,0.0791016
1541874493101486,0.383789,-0.9375,0.0820313
1541874493123483,0.37793,-0.928223,0.0830078
1541874493144554,0.378906,-0.932129,0.0844727
1541874493161533,0.385742,-0.95752,0.0786133
1541874493183530,0.38623,-0.954102,0.0786133
1541874493204566,0.38623,-0.939941,0.0786133
1541874493221579,0.382324,-0.931641,0.0839844
1541874493243577,0.385742,-0.919922,0.0805664
1541874493264608,0.384277,-0.917969,0.0839844
1541874493281645,0.381348,-0.91748,0.0834961
1541874493303624,0.384766,-0.919922,0.081543
1541874493324656,0.380371,-0.921875,0.0795898
1541874493341657,0.373047,-0.936035,0.0966797
1541874493363673,0.378418,-0.94043,0.0737305
1541874493384704,0.387207,-0.936035,0.0673828
1541874493401760,0.39502,-0.931152,0.0698242
1541874493423718,0.389648,-0.896484,0.0668945
1541874493444754,0.390625,-0.882813,0.0454102
1541874493460763,0.374023,-0.937012,0.0629883
1541874493483766,0.375,-0.986816,0.0488281
1541874493504802,0.366211,-0.975586,0.0410156
1541874493520814,0.351563,-0.969727,0.0361328
1541874493543828,0.339844,-0.998535,0.0307617
1541874493565850,0.338379,-1.03271,0.0283203
1541874493580862,0.318359,-1.0332,0.0390625
1541874493603863,0.289551,-1.05664,0.0571289
1541874493625897,0.275391,-1.06934,0.0605469
1541874493640908,0.270996,-1.05078,0.0454102
1541874493663926,0.285156,-1.03223,0.0400391
1541874493685973,0.254883,-1.00879,0.0463867
1541874493706944,0.227051,-1.04297,0.0576172
1541874493723974,0.213867,-1.03711,0.0322266
1541874493745994,0.204102,-1.03223,0.0444336
1541874493767009,0.193848,-1.01855,0.0375977
1541874493784022,0.162598,-1.01123,0.0136719
1541874493806035,0.129395,-1.03613,0.0219727
1541874493827038,0.0722656,-1.03223,0.0361328
1541874493844088,0.0361328,-1.02832,0.0244141
1541874493866086,-0.000976563,-1.02881,0.0283203
1541874493887103,-0.0410156,-1.04004,0.0249023
1541874493904116,-0.0532227,-1.03955,0.0112305
1541874493926116,-0.0620117,-0.998535,0.0224609
1541874493947150,-0.0864258,-0.983887,0.0102539
1541874493964165,-0.14209,-0.996582,0.0380859
1541874493986168,-0.180176,-1.01074,0.034668
1541874494007231,-0.200684,-0.999512,0.0527344
1541874494024210,-0.219727,-0.983398,0.0366211
1541874494046207,-0.262695,-0.966309,0.0483398
1541874494067243,-0.3125,-0.999023,0.0649414
1541874494084257,-0.330566,-1.00244,0.0693359
1541874494106256,-0.35791,-0.947266,0.0664063
1541874494127290,-0.353516,-0.905762,0.0410156
1541874494144301,-0.370117,-0.911133,0.0239258
1541874494166302,-0.402344,-0.913086,0.03125
1541874494187337,-0.438477,-0.933594,0.0361328
1541874494204343,-0.417969,-0.908203,0.0375977
1541874494226349,-0.471191,-0.894531,0.0332031
1541874494247384,-0.496094,-0.886719,0.0463867
1541874494264379,-0.482422,-0.886719,0.0405273
1541874494286397,-0.522949,-0.882813,0.0429688
1541874494307432,-0.544434,-0.875977,0.0439453
1541874494323426,-0.546387,-0.856445,0.0517578
1541874494346445,-0.556152,-0.82373,0.0527344
1541874494351485,-0.562012,-0.81543,0.0639648
1541874494374468,-0.581055,-0.797852,0.0566406
1541874494390479,-0.60498,-0.790039,0.0644531
1541874494411514,-0.60791,-0.807617,0.0571289
1541874494434567,-0.625488,-0.797363,0.0507813
1541874494449540,-0.625,-0.786133,0.0498047
1541874494471561,-0.645996,-0.789551,0.0585938
1541874494494579,-0.680664,-0.786133,0.0585938
1541874494509590,-0.680176,-0.772949,0.0585938
1541874494531609,-0.699219,-0.768066,0.0537109
1541874494554609,-0.693848,-0.76123,0.0532227
1541874494569621,-0.704102,-0.733398,0.0644531
1541874494591636,-0.721191,-0.73291,0.0727539
1541874494614674,-0.720703,-0.720703,0.0761719
1541874494629685,-0.711426,-0.70166,0.0571289
1541874494651703,-0.714355,-0.683105,0.0629883
1541874494674721,-0.696777,-0.713379,0.0595703
1541874494689728,-0.717285,-0.702637,0.065918
1541874494711731,-0.727051,-0.693848,0.0483398
1541874494734763,-0.732422,-0.700684,0.0473633
1541874494749760,-0.741699,-0.698242,0.0439453
1541874494771797,-0.745605,-0.70166,0.0439453
1541874494794807,-0.76709,-0.691406,0.0478516
1541874494808826,-0.77832,-0.682617,0.0576172
1541874494831825,-0.790527,-0.687988,0.0405273
1541874494853862,-0.814941,-0.670898,0.0478516
1541874494868873,-0.814941,-0.632813,0.0449219
1541874494891891,-0.791504,-0.647949,0.0419922
1541874494913909,-0.802246,-0.633301,0.0522461
1541874494928922,-0.803711,-0.626465,0.0639648
1541874494951922,-0.796387,-0.624512,0.0532227
1541874494973943,-0.787109,-0.615234,0.0527344
1541874494989003,-0.790039,-0.598633,0.0410156
1541874495011986,-0.789063,-0.59668,0.0517578
1541874495034003,-0.801758,-0.607422,0.0288086
1541874495049014,-0.797363,-0.609375,0.0268555
1541874495072036,-0.807617,-0.60791,0.0224609
1541874495090045,-0.812988,-0.612793,0.0273438
1541874495111081,-0.817871,-0.634766,0.0375977
1541874495132080,-0.830566,-0.63916,0.0483398
1541874495150095,-0.832031,-0.636719,0.0439453
1541874495171147,-0.836426,-0.634277,0.0517578
1541874495192164,-0.831055,-0.636719,0.0522461
1541874495210143,-0.82666,-0.631836,0.0551758
1541874495231161,-0.814453,-0.62793,0.0585938
1541874495252174,-0.820313,-0.618164,0.0561523
1541874495270185,-0.812988,-0.610352,0.0566406
1541874495291189,-0.817383,-0.595703,0.0556641
1541874495312212,-0.821777,-0.599121,0.0537109
1541874495330231,-0.806641,-0.597168,0.0551758
1541874495351233,-0.820313,-0.598633,0.0649414
1541874495372252,-0.818848,-0.589844,0.0629883
1541874495390264,-0.838867,-0.58252,0.0522461
1541874495411290,-0.833496,-0.581543,0.0405273
1541874495432315,-0.845215,-0.569824,0.0439453
1541874495449330,-0.851563,-0.568848,0.046875
1541874495473348,-0.844238,-0.565918,0.0571289
1541874495492360,-0.833984,-0.585938,0.0356445
1541874495509377,-0.836426,-0.588379,0.0390625
1541874495532394,-0.841797,-0.592285,0.0449219
1541874495551389,-0.84375,-0.587891,0.0522461
1541874495569431,-0.849609,-0.584473,0.0532227
1541874495592424,-0.851074,-0.585449,0.050293
1541874495611456,-0.849609,-0.587402,0.0419922
1541874495629452,-0.838867,-0.581543,0.0463867
1541874495652489,-0.835449,-0.57959,0.0424805
1541874495671504,-0.833008,-0.587891,0.0351563
1541874495689499,-0.835938,-0.57959,0.0458984
1541874495712535,-0.836914,-0.578613,0.0483398
1541874495731551,-0.827148,-0.58252,0.0439453
1541874495757571,-0.835938,-0.580078,0.0444336
1541874495772601,-0.838867,-0.586426,0.0371094
1541874495792600,-0.839844,-0.583496,0.0424805
1541874495808605,-0.839355,-0.59082,0.0512695
1541874495831631,-0.842285,-0.595215,0.0493164
1541874495852649,-0.844727,-0.595703,0.0541992
1541874495868639,-0.845215,-0.595215,0.0576172
1541874495891676,-0.834473,-0.597168,0.0522461
1541874495912693,-0.83252,-0.587402,0.0522461
1541874495928687,-0.830566,-0.592285,0.050293
1541874495951724,-0.831543,-0.603027,0.0405273
1541874495972740,-0.83252,-0.586914,0.046875
1541874495988744,-0.834961,-0.59375,0.0390625
1541874496011806,-0.844238,-0.590332,0.0449219
1541874496033776,-0.838867,-0.584473,0.0444336
1541874496048790,-0.828613,-0.588867,0.0517578
1541874496071817,-0.819824,-0.594238,0.0522461
1541874496092834,-0.823242,-0.592285,0.0517578
1541874496108827,-0.827148,-0.589355,0.0610352
1541874496131899,-0.823242,-0.589844,0.0585938
1541874496152877,-0.814941,-0.57666,0.0537109
1541874496168875,-0.818848,-0.581055,0.0537109
1541874496191948,-0.811523,-0.57666,0.0522461
1541874496212929,-0.805176,-0.580078,0.0561523
1541874496227940,-0.806641,-0.57959,0.0556641
1541874496251959,-0.795898,-0.581543,0.0473633
1541874496272975,-0.782715,-0.599121,0.0458984
1541874496287988,-0.767578,-0.628906,0.0371094
1541874496312006,-0.759766,-0.63916,0.0395508
1541874496333057,-0.75293,-0.657715,0.0175781
1541874496348039,-0.743164,-0.646973,0.0180664
1541874496371034,-0.766113,-0.66748,0.015625
1541874496394064,-0.737305,-0.731934,0.0424805
1541874496408075,-0.686523,-0.729004,0.0390625
1541874496431144,-0.674805,-0.729004,0.0283203
1541874496454100,-0.628418,-0.782715,0.0126953
1541874496468110,-0.599121,-0.806152,0.034668
1541874496491147,-0.567383,-0.84375,0.0249023
1541874496514165,-0.52832,-0.85498,0.0317383
1541874496535217,-0.512695,-0.869141,0.0107422
1541874496551194,-0.512207,-0.88916,0.0327148
1541874496574193,-0.500977,-0.911133,0.0297852
1541874496595265,-0.455566,-0.92627,0.0297852
1541874496611233,-0.42627,-0.922363,0.0302734
1541874496634259,-0.421387,-0.91748,0.0258789
1541874496655276,-0.380859,-0.929199,0.00439453
1541874496671271,-0.375488,-0.950195,0.0112305
1541874496694307,-0.334961,-0.965332,0.00585938
1541874496715324,-0.30957,-0.970703,0.0126953
1541874496731317,-0.288574,-0.97168,0.027832
1541874496754354,-0.262207,-0.974609,0.019043
1541874496775353,-0.186035,-1.02002,0.00878906
1541874496791366,-0.123535,-1.0376,0.00390625
1541874496814398,-0.108398,-0.980469,0.0102539
1541874496835453,-0.0541992,-0.973145,0.0146484
1541874496851413,-0.0253906,-1.02246,0.0161133
1541874496874449,0.00146484,-1.04883,0.015625
1541874496895465,0.0180664,-1.04834,0.0185547
1541874496911459,0.0664063,-1.04736,0.00878906
1541874496934495,0.0878906,-1.04199,0.0175781
1541874496955511,0.124023,-1.02832,0.0126953
1541874496971510,0.156738,-1.02295,0.00341797
1541874496994580,0.159668,-1.04248,-0.00146484
1541874497015597,0.174316,-1.03076,-0.00683594
1541874497031563,0.195801,-1.02686,-0.0209961
1541874497053589,0.218262,-1.00244,-0.0214844
1541874497075601,0.244629,-1.04492,0.00244141
1541874497091623,0.234863,-1.04541,0.0166016
1541874497113672,0.247559,-1.03662,0.027832
1541874497134634,0.272461,-1.06104,0.00732422
1541874497157671,0.268555,-1.04297,0.0078125
1541874497173680,0.277344,-1.01953,0.00146484
1541874497194683,0.286133,-1.00391,0.0170898
1541874497210694,0.296387,-0.98584,0.0078125
1541874497233723,0.322754,-0.961914,0.00976563
1541874497254746,0.34375,-0.96582,0.00439453
1541874497270740,0.351074,-0.959473,-0.00488281
1541874497293759,0.370117,-0.961426,-0.00976563
1541874497314790,0.375977,-1.00732,0.0322266
1541874497330787,0.392578,-1.11182,0.0810547
1541874497353806,0.340332,-1.00879,0.102539
1541874497376861,0.319336,-0.909668,0.0488281
1541874497390835,0.361328,-0.972168,-0.0185547
1541874497413854,0.399902,-0.899902,-0.0170898
1541874497436871,0.401855,-0.894043,0.0170898
1541874497450882,0.373535,-0.911621,0.0493164
1541874497473911,0.36084,-0.937988,0.059082
1541874497496938,0.370605,-0.954102,0.0576172
1541874497510948,0.364746,-0.929199,0.0488281
1541874497533946,0.359375,-0.920898,0.0395508
1541874497557020,0.36084,-0.935547,0.0444336
1541874497570976,0.364258,-0.936523,0.0429688
1541874497593994,0.365723,-0.9375,0.0380859
1541874497617027,0.362305,-0.947754,0.0380859
1541874497631024,0.351563,-0.950684,0.034668
1541874497654042,0.35498,-0.949219,0.0415039
1541874497677073,0.361328,-0.953613,0.043457
1541874497691090,0.358887,-0.954102,0.0449219
1541874497714088,0.35791,-0.94873,0.0551758
1541874497736117,0.358398,-0.945801,0.0507813
1541874497751138,0.350098,-0.944824,0.0517578
1541874497774136,0.362305,-0.955566,0.0458984
1541874497796152,0.359375,-0.955078,0.0439453
1541874497811180,0.361328,-0.953125,0.0375977
1541874497834202,0.350586,-0.948242,0.0351563
1541874497856200,0.347656,-0.948242,0.0366211
1541874497877217,0.354492,-0.947754,0.0419922
1541874497894230,0.352051,-0.950195,0.0463867
1541874497916248,0.358398,-0.94873,0.0390625
1541874497937264,0.354004,-0.958984,0.0336914
1541874497954278,0.355957,-0.96582,0.034668
1541874497976294,0.350098,-0.969238,0.0332031
1541874497997311,0.349609,-0.959473,0.0297852
1541874498014327,0.35791,-0.955078,0.0175781
1541874498036359,0.357422,-0.952637,0.0263672
1541874498057377,0.358887,-0.941895,0.0332031
1541874498074372,0.357422,-0.940918,0.0273438
1541874498096388,0.362305,-0.939453,0.0273438
1541874498117405,0.360352,-0.948242,0.0322266
1541874498134419,0.359863,-0.94873,0.0317383
1541874498156436,0.360352,-0.953125,0.0371094
1541874498177508,0.361816,-0.964355,0.0395508
1541874498194486,0.36377,-0.95166,0.0395508
1541874498216483,0.369629,-0.934082,0.0419922
1541874498237520,0.374023,-0.92041,0.0341797
1541874498254533,0.353027,-0.925781,0.0317383
1541874498276531,0.343262,-0.928223,0.0390625
1541874498299568,0.36377,-0.94873,0.0410156
1541874498314580,0.347168,-1.00342,0.0180664
1541874498336589,0.36377,-0.999512,0.00244141
1541874498359618,0.348633,-0.974609,-0.00390625
1541874498374608,0.345215,-0.956543,0.0292969
1541874498396628,0.340332,-0.978516,0.0297852
1541874498419658,0.328125,-1.02734,0.0273438
1541874498439661,0.304688,-1.03467,0.00634766
1541874498456672,0.289063,-1.0542,0.000488281
1541874498478744,0.272461,-1.06836,0.00878906
1541874498500728,0.238281,-1.0498,0.0200195
1541874498516720,0.239746,-1.03271,0.0102539
1541874498538756,0.240723,-1.02051,-0.000976563
1541874498559756,0.25,-1.03125,-0.00488281
1541874498576786,0.228516,-1.02686,0.00683594
1541874498598798,0.12793,-0.927734,-0.0322266
1541874498619856,0.169922,-1.03027,-0.0234375
1541874498636816,0.140137,-1.04883,-0.019043
1541874498658860,0.102051,-1.02686,-0.00976563
1541874498679866,0.0795898,-1.00635,-0.00927734
1541874498696897,0.0307617,-1.021,-0.0200195
1541874498718884,0.00537109,-1.0166,-0.0141602
1541874498739914,-0.0244141,-1.02197,-0.0273438
1541874498756927,-0.0517578,-1.05176,-0.0410156
1541874498778941,-0.103027,-1.05225,-0.0234375
1541874498799962,-0.150391,-1.03955,0.00537109
1541874498806966,-0.188477,-1.021,0.000976563
1541874498821978,-0.19873,-1.02441,-0.0366211
1541874498844996,-0.192383,-0.966797,-0.0703125
1541874498867013,-0.237305,-1.01709,-0.0488281
1541874498882026,-0.294434,-1.03516,-0.043457
1541874498905026,-0.328125,-0.964355,-0.0307617
1541874498927061,-0.380859,-0.921387,-0.0327148
1541874498942072,-0.38916,-0.931152,-0.0332031
1541874498965085,-0.394531,-0.908691,-0.0473633
1541874498987108,-0.424316,-0.882813,-0.0239258
1541874499005123,-0.456543,-0.90625,-0.0395508
1541874499025135,-0.472656,-0.90625,-0.0351563
1541874499047155,-0.479492,-0.862305,-0.0385742
1541874499062167,-0.508301,-0.851074,-0.0532227
1541874499084185,-0.511719,-0.870117,-0.0336914
1541874499107202,-0.536133,-0.868652,-0.0229492
1541874499122214,-0.552734,-0.849121,-0.0205078
1541874499144267,-0.565918,-0.839844,-0.0263672
1541874499167285,-0.595703,-0.850098,-0.0141602
1541874499182248,-0.628906,-0.843262,-0.00634766
1541874499204314,-0.643066,-0.8125,-0.00488281
1541874499222273,-0.67041,-0.79541,-0.00195313
1541874499242308,-0.66748,-0.782227,0
1541874499264309,-0.688477,-0.78418,0.00244141
1541874499282330,-0.712402,-0.750488,0.0175781
1541874499302355,-0.719727,-0.701172,0.0112305
1541874499324354,-0.725098,-0.682129,0.00292969
1541874499343369,-0.733887,-0.696289,0.0117188
1541874499362403,-0.719727,-0.689453,0.00634766
1541874499384415,-0.737305,-0.664551,-0.00195313
1541874499402430,-0.75293,-0.647461,0.00244141
1541874499422445,-0.773438,-0.648438,-0.00195313
1541874499444468,-0.768066,-0.643555,-0.00341797
1541874499462462,-0.783691,-0.628418,-0.00390625
1541874499482494,-0.776855,-0.637207,0.000488281
1541874499504495,-0.781738,-0.635742,0.00732422
1541874499522509,-0.796875,-0.618652,0.0166016
1541874499542525,-0.796387,-0.619141,0.0400391
1541874499564541,-0.8125,-0.617676,0.0478516
1541874499582559,-0.814941,-0.602051,0.059082
1541874499602628,-0.834961,-0.587891,0.0605469
1541874499624604,-0.824219,-0.58252,0.0556641
1541874499642605,-0.816895,-0.592285,0.0454102
1541874499662630,-0.824219,-0.603027,0.0498047
1541874499684639,-0.827148,-0.597656,0.043457
1541874499702670,-0.833008,-0.585938,0.0512695
1541874499723686,-0.845215,-0.572754,0.0600586
1541874499744703,-0.854492,-0.585938,0.0576172
1541874499762698,-0.839844,-0.570801,0.0639648
1541874499781712,-0.842285,-0.563477,0.0615234
1541874499804731,-0.845215,-0.551758,0.0649414
1541874499822745,-0.856445,-0.540039,0.0742188
1541874499843761,-0.85498,-0.533203,0.0644531
1541874499864778,-0.870605,-0.531738,0.0732422
1541874499882792,-0.874512,-0.509766,0.0576172
1541874499904809,-0.873535,-0.506348,0.0585938
1541874499924827,-0.87207,-0.509277,0.0498047
1541874499942860,-0.875977,-0.509277,0.0478516
1541874499963875,-0.885742,-0.499023,0.0415039
1541874499984892,-0.874512,-0.498047,0.0488281
1541874500002887,-0.874023,-0.516113,0.0463867
1541874500023904,-0.874512,-0.523926,0.0498047
1541874500039916,-0.876953,-0.523438,0.0512695
1541874500062934,-0.882324,-0.529297,0.0532227
1541874500083950,-0.87793,-0.529297,0.0571289
1541874500099963,-0.877441,-0.535645,0.0595703
1541874500123001,-0.878418,-0.533203,0.0620117
1541874500143997,-0.881348,-0.532715,0.0629883
1541874500160010,-0.880371,-0.533203,0.0644531
1541874500183028,-0.87793,-0.527832,0.0556641
1541874500205045,-0.875,-0.521973,0.0576172
1541874500220057,-0.87207,-0.519531,0.059082
1541874500243091,-0.878418,-0.511719,0.0522461
1541874500264095,-0.871582,-0.509766,0.0405273
1541874500285108,-0.875488,-0.521484,0.0493164
1541874500302122,-0.874512,-0.521484,0.0576172
1541874500324139,-0.877441,-0.532227,0.0566406
1541874500339151,-0.886719,-0.542969,0.0541992
1541874500362183,-0.890625,-0.533691,0.0478516
1541874500384190,-0.88623,-0.537109,0.0541992
1541874500398198,-0.891113,-0.522461,0.0634766
1541874500422217,-0.887695,-0.519531,0.0605469
1541874500444233,-0.875,-0.524414,0.0581055
1541874500458244,-0.871582,-0.521484,0.0541992
1541874500481262,-0.868164,-0.524414,0.0561523
1541874500504280,-0.87207,-0.531738,0.0517578
1541874500518340,-0.878418,-0.531738,0.0419922
1541874500542320,-0.874512,-0.521973,0.0600586
1541874500564328,-0.875977,-0.52002,0.0512695
1541874500578339,-0.882324,-0.516602,0.0522461
1541874500602373,-0.879883,-0.520508,0.0522461
1541874500624394,-0.87207,-0.521484,0.0483398
1541874500638386,-0.871582,-0.522949,0.0488281
1541874500662408,-0.87207,-0.519531,0.0517578
1541874500684441,-0.873535,-0.526855,0.0473633
1541874500705494,-0.880371,-0.520508,0.0507813
1541874500721462,-0.880859,-0.523926,0.0517578
1541874500744473,-0.883301,-0.524902,0.0600586
1541874500765488,-0.882813,-0.52002,0.0493164
1541874500781514,-0.874023,-0.519043,0.046875
1541874500804536,-0.87207,-0.518066,0.0419922
1541874500825589,-0.870117,-0.508301,0.050293
1541874500841546,-0.863281,-0.501953,0.0449219
1541874500864582,-0.861328,-0.495605,0.0429688
1541874500885594,-0.86377,-0.497559,0.0566406
1541874500901593,-0.880371,-0.508301,0.0678711
1541874500924629,-0.880859,-0.520508,0.0673828
1541874500945646,-0.858398,-0.522949,0.0810547
1541874500961642,-0.839355,-0.49707,0.0805664
1541874500984712,-0.827148,-0.504395,0.0629883
1541874501005730,-0.804199,-0.513672,0.0424805
1541874501021687,-0.8125,-0.537598,0.0498047
1541874501044725,-0.771973,-0.568359,0.0351563
1541874501065741,-0.746094,-0.608398,0.0283203
1541874501080732,-0.727051,-0.650391,0.0268555
1541874501104771,-0.693359,-0.667969,0.0234375
1541874501125823,-0.691895,-0.684082,0.0239258
1541874501140845,-0.681152,-0.712402,0.0209961
1541874501164814,-0.639648,-0.779785,0.0131836
1541874501186817,-0.618652,-0.811523,0.015625
1541874501209847,-0.598633,-0.834961,0.00585938
1541874501224846,-0.557617,-0.86377,0.000976563
1541874501246864,-0.553711,-0.884766,-0.000976563
1541874501267899,-0.517578,-0.912598,-0.0112305
1541874501283895,-0.506348,-0.911133,-0.0224609
1541874501306910,-0.458496,-0.91748,-0.0229492
1541874501327947,-0.454102,-0.938965,-0.00292969
1541874501343958,-0.416992,-0.96582,-0.0126953
1541874501366973,-0.406738,-0.96875,-0.0209961
1541874501387994,-0.352539,-0.981934,-0.0366211
1541874501404010,-0.325684,-1.01367,-0.0444336
1541874501427025,-0.314941,-1.01807,-0.0395508
1541874501448076,-0.314941,-1.01318,-0.0307617
1541874501464052,-0.307129,-0.999023,-0.0249023
1541874501487055,-0.26416,-1.01025,-0.0341797
1541874501508088,-0.230469,-1.03271,-0.0483398
1541874501524081,-0.226074,-1.03369,-0.0439453
1541874501547115,-0.216309,-1.03125,-0.0390625
1541874501568170,-0.208984,-1.01367,-0.0424805
1541874501584129,-0.165527,-1.01318,-0.043457
1541874501607161,-0.137207,-1.02148,-0.0424805
1541874501628176,-0.116211,-1.01025,-0.0234375
1541874501644178,-0.0917969,-1.00195,-0.0263672
1541874501667231,-0.0454102,-0.998535,-0.0268555
1541874501688210,-0.0170898,-1.00293,-0.0180664
1541874501704225,0.00390625,-1.02393,-0.0244141
1541874501727260,-0.0102539,-1.04541,-0.0180664
1541874501748261,-0.00537109,-1.01855,-0.0102539
1541874501764289,0.0205078,-1.01221,-0.0307617
1541874501787307,0.0551758,-1.021,-0.0341797
1541874501808324,0.0825195,-1.03125,-0.0297852
1541874501824317,0.117188,-1.01074,-0.0366211
1541874501847388,0.136719,-0.997559,-0.0219727
1541874501868367,0.163574,-0.983887,-0.0200195
1541874501883374,0.176758,-1.00146,-0.0166016
1541874501907394,0.180664,-1.03906,-0.0180664
1541874501928417,0.172852,-1.05957,-0.00927734
1541874501943424,0.172852,-1.05127,-0.00439453
1541874501967431,0.186035,-1.03564,-0.0200195
1541874501988451,0.20752,-1.02344,-0.0380859
1541874502003458,0.217285,-1.01514,-0.027832
1541874502026496,0.231445,-1.00537,-0.0253906
1541874502055518,0.246582,-0.997559,-0.0185547
1541874502063505,0.270508,-0.980957,-0.0214844
1541874502086582,0.296387,-0.972656,-0.0195313
1541874502109562,0.292969,-0.992188,-0.00634766
1541874502123553,0.295898,-1.01221,-0.0126953
1541874502146589,0.307617,-0.982422,-0.0170898
1541874502169607,0.326172,-0.955078,-0.0214844
1541874502183614,0.329102,-0.952148,-0.0107422
1541874502206626,0.339844,-0.933105,-0.00732422
1541874502229654,0.348633,-0.9375,-0.0126953
1541874502250707,0.347168,-0.953125,-0.00195313
1541874502266666,0.34375,-0.970703,0.0161133
1541874502289702,0.34082,-0.971191,0.0327148
1541874502310754,0.351563,-0.972656,0.0454102
1541874502326712,0.375488,-0.993652,0.107422
1541874502349784,0.495117,-1.04443,0.147461
1541874502370803,0.393066,-0.955566,-0.00488281
1541874502386769,0.398438,-0.932129,0.0561523
1541874502409796,0.373535,-0.989746,0.00244141
1541874502430812,0.415039,-0.963867,-0.0405273
1541874502446805,0.466797,-0.755371,-0.0571289
1541874502469839,0.485352,-0.722656,-0.0166016
1541874502490896,0.400879,-0.956055,0.027832
1541874502506854,0.371582,-1.04053,0.065918
1541874502529891,0.370117,-0.978516,0.0576172
1541874502550891,0.390137,-0.92627,0.0463867
1541874502566901,0.400879,-0.930176,0.0224609
1541874502589973,0.407715,-0.961914,0.00537109
1541874502610989,0.421875,-0.933105,0.00195313
1541874502626957,0.419922,-0.907715,0.0268555
1541874502648967,0.411621,-0.913086,0.0405273
1541874502670992,0.408691,-0.924805,0.0429688
1541874502687016,0.412598,-0.931641,0.0327148
1541874502709032,0.417969,-0.918457,0.0234375
1541874502730031,0.418457,-0.910645,0.027832
1541874502747043,0.421387,-0.914551,0.0239258
1541874502769122,0.408203,-0.929199,0.0263672
1541874502790090,0.410645,-0.937012,0.0366211
1541874502807104,0.415039,-0.92334,0.0361328
1541874502829160,0.421387,-0.921875,0.0268555
1541874502850138,0.421875,-0.920898,0.0229492
1541874502867136,0.421875,-0.928711,0.0214844
1541874502889170,0.419922,-0.921387,0.0249023
1541874502910225,0.418945,-0.91748,0.0146484
1541874502927221,0.42041,-0.919434,0.0185547
1541874502949217,0.408691,-0.932129,0.0180664
1541874502970272,0.408691,-0.928711,0.0180664
1541874502987249,0.417969,-0.92627,0.015625
1541874503009248,0.422852,-0.936523,0.019043
1541874503030319,0.41748,-0.928223,0.00732422
1541874503046278,0.410156,-0.911621,0.0141602
1541874503069294,0.411133,-0.910156,0.015625
1541874503092334,0.420898,-0.936523,0.0161133
1541874503107343,0.407715,-0.959473,0.0195313
1541874503129343,0.403809,-0.95166,0.015625
1541874503152379,0.396973,-0.930664,0.00634766
1541874503167391,0.393066,-0.938477,-0.000488281
