timestamp,x,y,z
1541872381098490,0.0151367,-0.605957,0.820801
1541872381120543,0.00439453,-0.597656,0.821289
1541872381135541,0.00195313,-0.587891,0.811035
1541872381158541,0.00537109,-0.583008,0.810547
1541872381180566,0.00341797,-0.61377,0.805664
1541872381195589,0.0102539,-0.611816,0.801758
1541872381234622,0.0117188,-0.611328,0.802734
1541872381236615,-0.00341797,-0.612793,0.801758
1541872381249630,0.00146484,-0.604004,0.811035
1541872381272635,0.00732422,-0.600586,0.811035
1541872381286660,0.0131836,-0.602051,0.803711
1541872381315688,0.00732422,-0.591797,0.800781
1541872381359725,0.00292969,-0.623535,0.798828
1541872381369734,-0.00439453,-0.642578,0.807617
1541872381370714,0.000488281,-0.620117,0.812012
1541872381383726,0.00976563,-0.620605,0.804688
1541872381404762,0.0126953,-0.622559,0.819824
1541872381427781,-0.00195313,-0.594727,0.793457
1541872381445795,-0.00732422,-0.588379,0.775879
1541872381464811,0.00390625,-0.593262,0.765625
1541872381487826,0.019043,-0.609375,0.773438
1541872381505827,0.0195313,-0.624023,0.763672
1541872381524856,0.00927734,-0.614258,0.736816
1541872381550863,0,-0.627441,0.740234
1541872381564894,0.00292969,-0.66748,0.736328
1541872381584910,0.00585938,-0.701172,0.744629
1541872381607924,0.015625,-0.70752,0.745117
1541872381624945,0.0200195,-0.70752,0.759766
1541872381644960,0.0136719,-0.737305,0.791016
1541872381666978,0.0297852,-0.759277,0.808594
1541872381684987,0.0102539,-0.765625,0.828613
1541872381704993,0.0224609,-0.672363,0.827637
1541872381727063,0.0800781,-0.693848,0.818359
1541872381745026,0.146973,-0.778809,0.803223
1541872381766083,0.174805,-0.762207,0.77832
1541872381787077,0.273438,-0.648926,0.726563
1541872381805074,0.394531,-0.643066,0.615234
1541872381826107,0.426758,-0.764648,0.600098
1541872381847163,0.435059,-0.827637,0.604004
1541872381865132,0.385742,-0.84668,0.578125
1541872381886139,0.347656,-0.779297,0.626465
1541872381907176,0.279785,-0.72998,0.594238
1541872381925173,0.210449,-0.760742,0.599121
1541872381946198,0.125977,-0.807129,0.599121
1541872381967225,0.0649414,-0.79248,0.57959
1541872381985220,-0.00341797,-0.768066,0.546875
1541872382006238,-0.0444336,-0.756348,0.513672
1541872382027294,-0.0512695,-0.773438,0.511719
1541872382045270,-0.103027,-0.774414,0.526855
1541872382066287,-0.17041,-0.773438,0.505371
1541872382087315,-0.194824,-0.778809,0.432617
1541872382106323,-0.141113,-0.82373,0.440918
1541872382126345,-0.090332,-0.852051,0.422363
1541872382147369,-0.14502,-0.763184,0.4375
1541872382165370,-0.102051,-0.760742,0.407227
1541872382188404,-0.0327148,-0.894531,0.367188
1541872382207423,-0.0175781,-0.876465,0.383301
1541872382225434,-0.0463867,-0.841797,0.478027
1541872382254445,0.0429688,-0.864746,0.481934
1541872382268512,0.159668,-0.864258,0.520508
1541872382284482,0.27832,-0.799805,0.505371
1541872382307501,0.426758,-0.845703,0.491699
1541872382328558,0.403809,-0.901855,0.493164
1541872382350542,0.470215,-0.902344,0.456055
1541872382367551,0.53418,-0.905273,0.41748
1541872382389565,0.627441,-1.01074,0.363281
1541872382410626,0.611816,-0.850098,0.322266
1541872382426604,0.679199,-0.78125,0.298828
1541872382449604,0.680664,-0.726074,0.381836
1541872382470675,0.544434,-0.685547,0.439941
1541872382486646,0.560547,-0.813965,0.45166
1541872382509653,0.549805,-0.860352,0.472656
1541872382530690,0.566406,-0.872559,0.42041
1541872382546687,0.570313,-0.72998,0.418457
1541872382569717,0.710449,-0.641113,0.290039
1541872382590719,0.762207,-0.635254,0.310547
1541872382606735,0.699707,-0.546875,0.362793
1541872382629766,0.619141,-0.349609,0.352539
1541872382650769,0.668945,-0.375,0.390625
1541872382666837,0.73584,-0.475098,0.274902
1541872382689821,0.714844,-0.32959,0.262207
1541872382713835,0.726074,-0.228516,0.296875
1541872382726887,0.728027,-0.246582,0.276855
1541872382749853,0.747559,-0.288086,0.289063
1541872382771885,0.777344,-0.361328,0.296387
1541872382786937,0.763672,-0.498047,0.320313
1541872382809903,0.743164,-0.592285,0.341797
1541872382831934,0.817383,-0.62793,0.353516
1541872382852955,0.905762,-0.628906,0.354492
1541872382869965,0.955566,-0.649414,0.34375
1541872382891971,0.955566,-0.679199,0.318359
1541872382913004,0.879395,-0.682129,0.284668
1541872382931000,0.811523,-0.646484,0.297852
1541872382952020,0.805176,-0.580566,0.286133
1541872382973054,0.837891,-0.510254,0.280273
1541872382990068,0.884277,-0.438477,0.274414
1541872383012082,0.894531,-0.39502,0.259277
1541872383033139,0.890137,-0.395508,0.253906
1541872383050117,0.866211,-0.402832,0.260254
1541872383072117,0.858887,-0.418457,0.262207
1541872383093153,0.872559,-0.402344,0.239258
1541872383110164,0.889648,-0.39502,0.235352
1541872383132168,0.896973,-0.416504,0.215332
1541872383153202,0.896973,-0.416992,0.224121
1541872383170197,0.860352,-0.453613,0.240723
1541872383192217,0.872559,-0.470215,0.246582
1541872383213251,0.88623,-0.431641,0.230957
1541872383229246,0.88916,-0.420898,0.211426
1541872383252284,0.911133,-0.405762,0.206055
1541872383273301,0.923828,-0.370605,0.204102
1541872383290315,0.939453,-0.335449,0.221191
1541872383312335,0.901855,-0.366211,0.248535
1541872383333388,0.918945,-0.354004,0.207031
1541872383349364,0.899414,-0.351074,0.212891
1541872383372384,0.870605,-0.486328,0.220215
1541872383393401,0.903809,-0.474121,0.232422
1541872383409414,0.859863,-0.527832,0.171875
1541872383432414,0.87207,-0.54541,0.155762
1541872383453449,0.854492,-0.47998,0.134766
1541872383469463,0.835938,-0.490234,0.167969
1541872383492482,0.821289,-0.527832,0.187012
1541872383513540,0.829102,-0.52002,0.212891
1541872383529513,0.786133,-0.513184,0.171875
1541872383552532,0.858398,-0.414551,0.201172
1541872383573549,0.835938,-0.471191,0.207031
1541872383595603,0.828125,-0.537598,0.168457
1541872383612599,0.884766,-0.533691,0.117676
1541872383634582,0.868652,-0.570313,0.0605469
1541872383649609,0.785156,-0.644531,0.120605
1541872383672626,0.766113,-0.763184,0.0913086
1541872383694645,0.744629,-0.819824,0.0810547
1541872383715665,0.72168,-0.795898,0.059082
1541872383732680,0.69043,-0.846191,0.0375977
1541872383754680,0.644531,-0.88623,0.0390625
1541872383775699,0.62207,-0.896484,0.0639648
1541872383792764,0.59082,-0.910645,0.0517578
1541872383814729,0.564941,-0.974121,0.0419922
1541872383835801,0.519531,-0.996094,0.0249023
1541872383852775,0.456543,-0.961914,0.0180664
1541872383874778,0.431152,-0.970703,0.00146484
1541872383895850,0.379883,-1.03271,-0.00732422
1541872383912810,0.330078,-1.0293,0.00244141
1541872383934847,0.298828,-0.991211,0.0317383
1541872383955864,0.242188,-1.00098,0.0527344
1541872383971877,0.204102,-1.02197,0.0585938
1541872383994895,0.155762,-1.02881,0.0268555
1541872384015913,0.120117,-0.969727,0.0200195
1541872384031924,0.0947266,-0.969727,-0.00341797
1541872384054928,0.0688477,-0.990723,-0.0317383
1541872384075963,0.0200195,-0.999512,-0.0205078
1541872384091987,-0.0571289,-0.994141,-0.00927734
1541872384114996,-0.103516,-0.96582,0.0117188
1541872384136016,-0.166992,-0.98291,0.00488281
1541872384152006,-0.179199,-0.974121,0.00439453
1541872384175061,-0.220215,-0.943359,-0.00244141
1541872384197059,-0.269531,-0.938477,-0.00292969
1541872384212076,-0.34668,-0.904785,0.00195313
1541872384235095,-0.38916,-0.882813,0.0078125
1541872384256111,-0.402344,-0.870117,0.027832
1541872384272105,-0.425293,-0.859375,0.0371094
1541872384295143,-0.421875,-0.868652,0.0288086
1541872384316161,-0.416016,-0.861328,0.0351563
1541872384332155,-0.41748,-0.870605,0.034668
1541872384355193,-0.406738,-0.881348,0.0258789
1541872384376210,-0.419922,-0.884277,0.0400391
1541872384391223,-0.467285,-0.878418,0.0322266
1541872384415243,-0.458008,-0.886719,0.0517578
1541872384436241,-0.48877,-0.87793,0.0615234
1541872384442265,-0.476563,-0.84375,0.0483398
1541872384459275,-0.485352,-0.872559,0.0537109
1541872384480292,-0.490234,-0.896973,0.0693359
1541872384502350,-0.474121,-0.875,0.0737305
1541872384519339,-0.506348,-0.881836,0.0737305
1541872384540346,-0.513184,-0.882324,0.0849609
1541872384562363,-0.511719,-0.88916,0.0859375
1541872384577371,-0.499023,-0.88623,0.0844727
1541872384601377,-0.505859,-0.89209,0.0908203
1541872384622397,-0.494629,-0.887207,0.0859375
1541872384637407,-0.519043,-0.866211,0.0766602
1541872384660480,-0.506348,-0.86377,0.0708008
1541872384682463,-0.5,-0.853516,0.0800781
1541872384697476,-0.506348,-0.854492,0.0942383
1541872384720495,-0.5,-0.856445,0.102539
1541872384742514,-0.498535,-0.862305,0.108887
1541872384757527,-0.491699,-0.862305,0.097168
1541872384780526,-0.468262,-0.884766,0.0927734
1541872384798593,-0.464844,-0.891113,0.0810547
1541872384817575,-0.466797,-0.90625,0.0917969
1541872384840593,-0.48584,-0.904297,0.0820313
1541872384862595,-0.480469,-0.898438,0.0810547
1541872384877659,-0.474121,-0.886719,0.0854492
1541872384900643,-0.461914,-0.878418,0.0878906
1541872384922661,-0.467773,-0.869629,0.0830078
1541872384937672,-0.455078,-0.873047,0.0957031
1541872384960692,-0.4375,-0.86084,0.0942383
1541872384982711,-0.433594,-0.865234,0.102051
1541872384997723,-0.421875,-0.859863,0.0888672
1541872385020741,-0.397949,-0.869141,0.0766602
1541872385042759,-0.367676,-0.880859,0.0664063
1541872385057772,-0.339355,-0.902344,0.0571289
1541872385080788,-0.324219,-0.94043,0.0478516
1541872385102845,-0.304199,-0.964844,0.0302734
1541872385117821,-0.283203,-0.973145,0.0385742
1541872385140821,-0.266602,-0.966797,0.0473633
1541872385162894,-0.24707,-0.973633,0.0566406
1541872385179856,-0.211914,-1.00098,0.0654297
1541872385199889,-0.177246,-1.01172,0.0576172
1541872385222908,-0.140137,-1.04199,0.0483398
1541872385238914,-0.107422,-1.04736,0.0385742
1541872385259938,-0.0991211,-1.02246,0.0668945
1541872385282958,-0.0566406,-1.04297,0.0600586
1541872385298956,0.015625,-1.06543,0.046875
1541872385319988,0.0371094,-1.06738,0.0395508
1541872385337991,0.0615234,-1.03857,0.0341797
1541872385359011,0.0844727,-1.01318,0.0385742
1541872385380040,0.121582,-1.03857,0.0356445
1541872385398034,0.117188,-1.05957,0.0444336
1541872385419057,0.125,-1.03955,0.0541992
1541872385440087,0.147461,-0.997559,0.043457
1541872385458083,0.181641,-0.980957,0.0444336
1541872385479102,0.227051,-1.01563,0.0410156
1541872385500171,0.219727,-1.0249,0.0366211
1541872385523156,0.193359,-1.02197,0.0625
1541872385541170,0.213379,-0.975586,0.0517578
1541872385560186,0.287598,-0.967285,0.0107422
1541872385578182,0.305176,-1.00684,0.0166016
1541872385601203,0.288086,-1.00342,0.0356445
1541872385620236,0.257813,-0.975098,0.0615234
1541872385638236,0.270996,-0.940918,0.0600586
1541872385661260,0.333984,-0.937012,0.0366211
1541872385680320,0.383789,-0.954102,0.0224609
1541872385698280,0.402832,-0.952148,0.0268555
1541872385720317,0.393555,-0.929199,0.0634766
1541872385740334,0.39502,-0.880859,0.0820313
1541872385758350,0.461914,-0.862793,0.0566406
1541872385781352,0.51709,-0.874512,0.0454102
1541872385800385,0.547852,-0.889648,0.0390625
1541872385818398,0.529785,-0.878418,0.0439453
1541872385840417,0.535645,-0.873047,0.0610352
1541872385861434,0.532227,-0.875,0.0585938
1541872385877438,0.52832,-0.889648,0.065918
1541872385900454,0.55127,-0.880371,0.0629883
1541872385921527,0.568848,-0.847168,0.0600586
1541872385937478,0.594727,-0.796875,0.0761719
1541872385960507,0.635742,-0.771484,0.0625
1541872385981513,0.672852,-0.77832,0.0634766
1541872385997527,0.683594,-0.765137,0.081543
1541872386020562,0.678711,-0.745117,0.0834961
1541872386041586,0.708496,-0.711914,0.0688477
1541872386057591,0.74707,-0.667969,0.0576172
1541872386079597,0.782227,-0.65625,0.0541992
1541872386100631,0.783203,-0.660645,0.0727539
1541872386117636,0.770996,-0.656738,0.0805664
1541872386139700,0.783203,-0.654297,0.0825195
1541872386160681,0.789551,-0.652832,0.0932617
1541872386177695,0.79248,-0.633789,0.0947266
1541872386199694,0.817871,-0.595703,0.0883789
1541872386220730,0.838379,-0.535645,0.0913086
1541872386237744,0.851563,-0.490234,0.105469
1541872386259754,0.861328,-0.464844,0.114258
1541872386280816,0.858887,-0.473145,0.124023
1541872386296788,0.871582,-0.476563,0.121582
1541872386319809,0.871094,-0.474121,0.119629
1541872386340830,0.895996,-0.499512,0.117676
1541872386356833,0.881836,-0.568848,0.11084
1541872386379844,0.871094,-0.550293,0.0996094
1541872386400879,0.870605,-0.533203,0.109375
1541872386416873,0.882813,-0.50293,0.104492
1541872386439891,0.899414,-0.455566,0.115234
1541872386460928,0.900391,-0.382813,0.124023
1541872386476942,0.901855,-0.368164,0.133301
1541872386499944,0.895508,-0.399414,0.130371
1541872386522979,0.90918,-0.407715,0.127441
1541872386544979,0.90625,-0.401855,0.125977
1541872386559990,0.909668,-0.416504,0.117188
1541872386583012,0.907715,-0.40918,0.107422
1541872386598077,0.905762,-0.395508,0.123535
1541872386620050,0.90625,-0.393066,0.126953
1541872386643094,0.901855,-0.391113,0.123047
1541872386657091,0.915527,-0.382324,0.114258
1541872386680109,0.90918,-0.377441,0.112305
1541872386703131,0.904297,-0.380371,0.118164
1541872386717156,0.913574,-0.385254,0.120605
1541872386740158,0.907227,-0.376953,0.123047
1541872386762177,0.907227,-0.377441,0.115723
1541872386777184,0.907715,-0.431641,0.114258
1541872386800190,0.90918,-0.420898,0.120117
1541872386823226,0.916016,-0.366699,0.118652
1541872386837237,0.909668,-0.353027,0.124023
1541872386860258,0.911133,-0.373535,0.129883
1541872386882262,0.903809,-0.375977,0.133301
1541872386897322,0.911621,-0.355957,0.141602
1541872386920307,0.915527,-0.364746,0.137207
1541872386942305,0.920898,-0.368164,0.139648
1541872386957337,0.91748,-0.379395,0.129395
1541872386980373,0.919922,-0.372559,0.132813
1541872387002365,0.918945,-0.336426,0.137207
1541872387023392,0.918457,-0.335938,0.135742
1541872387040407,0.912598,-0.342285,0.130859
1541872387062421,0.913574,-0.34375,0.131348
1541872387083441,0.903809,-0.317383,0.13623
1541872387100473,0.901855,-0.313477,0.121094
1541872387122456,0.905273,-0.335938,0.124023
1541872387143491,0.908691,-0.387207,0.118652
1541872387160507,0.899414,-0.486816,0.113281
1541872387182513,0.894531,-0.552246,0.101563
1541872387203540,0.869629,-0.595215,0.0893555
1541872387219554,0.843262,-0.615234,0.0859375
1541872387248577,0.828613,-0.606934,0.09375
1541872387263592,0.831543,-0.612793,0.0966797
1541872387279602,0.841309,-0.61084,0.101074
1541872387302618,0.845215,-0.58252,0.0913086
1541872387323674,0.842773,-0.566895,0.0991211
1541872387339651,0.850098,-0.546387,0.0952148
1541872387362653,0.84375,-0.531738,0.101563
1541872387383688,0.844238,-0.508789,0.0898438
1541872387399702,0.84082,-0.512695,0.0986328
1541872387422721,0.838379,-0.530273,0.0942383
1541872387444738,0.824219,-0.525879,0.0986328
1541872387459750,0.805664,-0.557617,0.0893555
1541872387482770,0.794434,-0.58252,0.0961914
1541872387504805,0.779297,-0.621582,0.0922852
1541872387519801,0.775879,-0.648926,0.0849609
1541872387542820,0.775879,-0.670898,0.0795898
1541872387564855,0.740723,-0.69043,0.0957031
1541872387585855,0.729004,-0.724609,0.0927734
1541872387602869,0.721191,-0.761719,0.0893555
1541872387624881,0.700684,-0.76123,0.0883789
1541872387645940,0.70459,-0.751465,0.0761719
1541872387662918,0.694824,-0.81543,0.0620117
1541872387684925,0.646484,-0.880371,0.0634766
1541872387705953,0.57959,-0.912109,0.074707
1541872387722967,0.547852,-0.877441,0.0698242
1541872387744983,0.553711,-0.840332,0.0454102
1541872387766003,0.538086,-0.836914,0.0458984
1541872387783014,0.535645,-0.871582,0.0458984
1541872387805018,0.503418,-0.86084,0.0458984
1541872387826052,0.490723,-0.850098,0.0571289
1541872387843066,0.486328,-0.852539,0.0424805
1541872387865065,0.461914,-0.870117,0.0610352
1541872387886104,0.445801,-0.898926,0.0585938
1541872387903100,0.427246,-0.938965,0.0541992
1541872387933142,0.393555,-0.938477,0.0561523
1541872387946152,0.375,-0.95166,0.0454102
1541872387963165,0.353027,-0.969238,0.0302734
1541872387985175,0.327148,-0.980957,0.0327148
1541872388006202,0.285645,-0.988281,0.0380859
1541872388023206,0.246094,-0.981934,0.0429688
1541872388045215,0.230957,-0.977051,0.0415039
1541872388066251,0.21875,-0.984863,0.046875
1541872388083264,0.206543,-0.977051,0.0419922
1541872388105263,0.191406,-0.98584,0.0375977
1541872388126336,0.168945,-0.994629,0.0473633
1541872388142313,0.141113,-0.999512,0.0458984
1541872388165332,0.128906,-1,0.0449219
1541872388186350,0.114746,-0.998535,0.0454102
1541872388210369,0.0737305,-1.00977,0.0424805
1541872388225366,0.0581055,-1.03076,0.0473633
1541872388246399,0.0356445,-1.01514,0.0522461
1541872388262403,0.00439453,-1.01221,0.0478516
1541872388285432,-0.012207,-1.02295,0.0327148
1541872388306449,-0.0307617,-1.01855,0.0405273
1541872388322462,-0.0551758,-1.02881,0.0366211
1541872388345480,-0.0756836,-1.03027,0.0395508
1541872388367490,-0.111328,-1.01904,0.0341797
1541872388382512,-0.134277,-1.01514,0.0415039
1541872388405531,-0.140137,-1.021,0.034668
1541872388427539,-0.152832,-1.021,0.0390625
1541872388442562,-0.165039,-1.00928,0.0224609
1541872388465581,-0.212402,-0.987793,0.0356445
1541872388487584,-0.245117,-0.973145,0.0410156
1541872388508617,-0.241699,-0.970703,0.034668
1541872388525631,-0.246582,-0.961914,0.0292969
1541872388547630,-0.263672,-0.964355,0.0341797
1541872388568664,-0.271973,-0.968262,0.0239258
1541872388585679,-0.304688,-0.956543,0.0175781
1541872388607692,-0.321777,-0.964355,0.0263672
1541872388628715,-0.34082,-0.959961,0.0322266
1541872388645728,-0.335449,-0.959473,0.0351563
1541872388667728,-0.341309,-0.971191,0.0292969
1541872388688764,-0.351563,-0.970703,0.0395508
1541872388705774,-0.359863,-0.960449,0.0415039
1541872388735811,-0.372559,-0.953613,0.0458984
1541872388748813,-0.391113,-0.940918,0.0595703
1541872388765808,-0.396973,-0.917969,0.0610352
1541872388787828,-0.404297,-0.916992,0.0571289
1541872388808863,-0.398926,-0.931641,0.0458984
1541872388824875,-0.402832,-0.945313,0.0395508
1541872388830880,-0.430664,-0.920898,0.0385742
1541872388852899,-0.430664,-0.921875,0.0336914
1541872388875917,-0.443359,-0.933594,0.0361328
1541872388890930,-0.46582,-0.916016,0.0458984
1541872388912930,-0.482422,-0.918945,0.0454102
1541872388935968,-0.493652,-0.901367,0.0439453
1541872388950979,-0.491211,-0.88916,0.0444336
1541872388973034,-0.490234,-0.885254,0.0410156
1541872388996016,-0.501465,-0.887695,0.0297852
1541872389011030,-0.504883,-0.875,0.0327148
1541872389033030,-0.504395,-0.876953,0.0322266
1541872389056067,-0.513672,-0.877441,0.0253906
1541872389071080,-0.510254,-0.871582,0.03125
1541872389093097,-0.51709,-0.879883,0.0327148
1541872389116116,-0.518555,-0.872559,0.0356445
1541872389131166,-0.527344,-0.86377,0.0361328
1541872389153130,-0.550293,-0.839355,0.0454102
1541872389176165,-0.562012,-0.84668,0.0483398
1541872389191178,-0.555176,-0.854492,0.050293
1541872389213196,-0.561035,-0.848145,0.0454102
1541872389231211,-0.564453,-0.84375,0.0385742
1541872389251221,-0.570801,-0.83252,0.0375977
1541872389273245,-0.57959,-0.843262,0.0429688
1541872389290252,-0.574707,-0.831543,0.0375977
1541872389311262,-0.582031,-0.831543,0.0375977
1541872389333278,-0.574707,-0.82959,0.0454102
1541872389351290,-0.571777,-0.83252,0.0390625
1541872389370326,-0.573242,-0.833496,0.0351563
1541872389393343,-0.569336,-0.844727,0.034668
1541872389411343,-0.575195,-0.839844,0.0249023
1541872389430375,-0.581543,-0.841797,0.0375977
1541872389453394,-0.584473,-0.833008,0.0415039
1541872389471408,-0.585938,-0.834961,0.0375977
1541872389490459,-0.587891,-0.835449,0.0410156
1541872389513443,-0.586914,-0.838379,0.0405273
1541872389531459,-0.581543,-0.839355,0.0405273
1541872389550473,-0.585938,-0.844238,0.0283203
1541872389573476,-0.588379,-0.834961,0.0366211
1541872389591508,-0.57959,-0.842773,0.0361328
1541872389610523,-0.580566,-0.841309,0.0419922
1541872389633542,-0.57666,-0.839844,0.0332031
1541872389651552,-0.580078,-0.852539,0.0341797
1541872389670573,-0.59082,-0.844727,0.0405273
1541872389693592,-0.588867,-0.838379,0.0415039
1541872389711617,-0.588867,-0.844727,0.0410156
1541872389730623,-0.585938,-0.833008,0.0336914
1541872389753676,-0.574707,-0.836426,0.0307617
1541872389771656,-0.577637,-0.838379,0.0292969
1541872389790706,-0.580078,-0.841309,0.0371094
1541872389813726,-0.585449,-0.837402,0.0375977
1541872389831702,-0.58252,-0.837402,0.0366211
1541872389850721,-0.577637,-0.842773,0.0380859
1541872389873740,-0.577637,-0.844238,0.0361328
1541872389891736,-0.580566,-0.840332,0.0366211
1541872389912768,-0.582031,-0.842773,0.0336914
1541872389933786,-0.584473,-0.835449,0.0322266
1541872389950803,-0.570801,-0.836914,0.0351563
1541872389971821,-0.577637,-0.835449,0.0380859
1541872389993820,-0.580078,-0.843262,0.034668
1541872390010891,-0.580078,-0.837402,0.0444336
1541872390032867,-0.57666,-0.836426,0.0385742
1541872390048884,-0.57373,-0.836426,0.0361328
1541872390070901,-0.569824,-0.834473,0.0292969
1541872390091914,-0.564941,-0.835449,0.0322266
1541872390108933,-0.560059,-0.831055,0.0390625
1541872390130943,-0.546875,-0.824219,0.0375977
1541872390153972,-0.545898,-0.830078,0.0351563
1541872390172987,-0.537109,-0.841309,0.0415039
1541872390190983,-0.54248,-0.842285,0.0512695
1541872390211999,-0.510742,-0.845703,0.0385742
1541872390233036,-0.497559,-0.851074,0.0449219
1541872390251041,-0.482422,-0.868652,0.0449219
1541872390273051,-0.472656,-0.880371,0.0415039
1541872390294083,-0.460449,-0.89209,0.0415039
1541872390310098,-0.452637,-0.887695,0.0478516
1541872390333119,-0.433105,-0.887207,0.0541992
1541872390354171,-0.416992,-0.909668,0.0576172
1541872390370146,-0.406738,-0.936523,0.0507813
1541872390393170,-0.400879,-0.944824,0.0605469
1541872390414220,-0.378906,-0.948242,0.0639648
1541872390430187,-0.334473,-0.959961,0.0478516
1541872390453217,-0.302246,-0.95752,0.0385742
1541872390474235,-0.274414,-0.973145,0.0449219
1541872390490231,-0.264648,-0.992188,0.0493164
1541872390513286,-0.248535,-0.988281,0.0527344
1541872390534319,-0.208984,-0.990723,0.043457
1541872390550278,-0.186035,-1.01367,0.0390625
1541872390579321,-0.162109,-1.03271,0.0454102
1541872390594333,-0.169922,-1.02881,0.0639648
1541872390610327,-0.152344,-1.00537,0.0668945
1541872390633365,-0.104004,-0.981445,0.0615234
1541872390654384,-0.0551758,-0.997559,0.0429688
1541872390670378,-0.0380859,-1.02686,0.0493164
1541872390693415,-0.0244141,-1.04053,0.0517578
1541872390714433,-0.000976563,-1.02295,0.0463867
1541872390730427,0.0366211,-1.02979,0.065918
1541872390753500,0.0576172,-1.02441,0.0654297
1541872390774464,0.0717773,-1,0.0620117
1541872390790477,0.0898438,-0.988281,0.0532227
1541872390813507,0.106934,-1.00391,0.0537109
1541872390834532,0.136719,-1.00244,0.065918
1541872390850536,0.200684,-0.984375,0.050293
1541872390873545,0.236328,-0.986328,0.0473633
1541872390894567,0.25,-0.977051,0.0527344
1541872390910594,0.27002,-1.00049,0.0488281
1541872390932612,0.274902,-1.00439,0.0600586
1541872390953626,0.30127,-0.995605,0.0576172
1541872390970625,0.31543,-0.97998,0.0712891
1541872390992662,0.365723,-0.991699,0.050293
1541872391013683,0.374512,-0.987305,0.0810547
1541872391029673,0.384277,-0.947754,0.0727539
1541872391052705,0.397949,-0.912109,0.0703125
1541872391073728,0.435547,-0.904297,0.0493164
1541872391089722,0.448242,-0.924805,0.0498047
1541872391112751,0.44873,-0.94043,0.0595703
1541872391133778,0.437988,-0.92041,0.0776367
1541872391149773,0.456055,-0.904785,0.0849609
1541872391172791,0.487793,-0.88623,0.0708008
1541872391193828,0.507813,-0.871582,0.081543
1541872391209831,0.547852,-0.852051,0.0732422
1541872391232842,0.560059,-0.849609,0.074707
1541872391262875,0.561035,-0.852539,0.0791016
1541872391269872,0.571777,-0.82959,0.0942383
1541872391292897,0.609375,-0.802246,0.0742188
1541872391315928,0.632324,-0.794434,0.0712891
1541872391329921,0.644531,-0.790527,0.0717773
1541872391352939,0.648438,-0.774414,0.0776367
1541872391375977,0.655273,-0.73584,0.0878906
1541872391396995,0.692383,-0.729492,0.0751953
1541872391412989,0.719238,-0.731445,0.0722656
1541872391436027,0.719727,-0.720215,0.0913086
1541872391457045,0.714844,-0.710449,0.100098
1541872391473039,0.723145,-0.716309,0.0849609
1541872391496074,0.729004,-0.712891,0.0766602
1541872391517088,0.724121,-0.713379,0.0717773
1541872391533089,0.758789,-0.669922,0.0800781
1541872391556118,0.76709,-0.646484,0.074707
1541872391577135,0.780273,-0.638672,0.0849609
1541872391593157,0.787598,-0.635254,0.0947266
1541872391616157,0.799316,-0.626953,0.104492
1541872391636193,0.809082,-0.606934,0.104004
1541872391653188,0.816895,-0.584961,0.0991211
1541872391675258,0.834473,-0.558594,0.0893555
1541872391696241,0.84082,-0.533203,0.0932617
1541872391713237,0.852539,-0.519531,0.10791
1541872391735267,0.859375,-0.496094,0.111328
1541872391756292,0.864746,-0.481445,0.125488
1541872391773301,0.870117,-0.479004,0.123047
1541872391795331,0.866699,-0.476563,0.125488
1541872391816341,0.865723,-0.486328,0.112793
1541872391833354,0.873535,-0.477539,0.111816
1541872391855354,0.874512,-0.486816,0.119629
1541872391876390,0.884277,-0.484375,0.109863
1541872391893404,0.876465,-0.492188,0.120117
1541872391915403,0.867676,-0.507813,0.131836
1541872391936475,0.865723,-0.505371,0.132813
1541872391953454,0.873535,-0.501953,0.120117
1541872391975463,0.89209,-0.483887,0.113281
1541872391996489,0.876465,-0.470703,0.120117
1541872392013502,0.873047,-0.476074,0.109863
1541872392035503,0.883301,-0.470703,0.10498
1541872392056574,0.877441,-0.474609,0.10498
1541872392073588,0.880859,-0.480957,0.10498
1541872392095551,0.870605,-0.469238,0.105957
1541872392116588,0.873535,-0.490723,0.117188
1541872392133639,0.874023,-0.48584,0.113281
1541872392155601,0.869629,-0.474609,0.112305
1541872392178633,0.881348,-0.459961,0.102539
1541872392193645,0.883301,-0.441406,0.109375
1541872392215658,0.878418,-0.435059,0.105957
1541872392245676,0.883301,-0.42334,0.105469
1541872392253727,0.885742,-0.411621,0.116211
1541872392275710,0.889648,-0.422363,0.115234
1541872392298726,0.900879,-0.415527,0.116211
1541872392312749,0.897461,-0.422363,0.119141
1541872392335769,0.898926,-0.40332,0.115723
1541872392357770,0.895996,-0.408203,0.116699
1541872392372799,0.898926,-0.409668,0.115723
1541872392395817,0.893066,-0.416992,0.112793
1541872392417871,0.88916,-0.411133,0.120605
1541872392432848,0.884277,-0.391602,0.119629
1541872392455867,0.890137,-0.388672,0.120605
1541872392477876,0.888184,-0.410645,0.118652
1541872392498886,0.891602,-0.438965,0.129395
1541872392515934,0.879883,-0.467285,0.121582
1541872392537926,0.864746,-0.536621,0.124023
1541872392558989,0.864258,-0.57959,0.125977
1541872392575984,0.847656,-0.605469,0.125
1541872392597976,0.84082,-0.608398,0.0854492
1541872392619002,0.822266,-0.650391,0.0874023
1541872392636016,0.815918,-0.654297,0.0595703
1541872392658024,0.809082,-0.678223,0.0654297
1541872392679051,0.795898,-0.67627,0.0639648
1541872392695050,0.776367,-0.692871,0.078125
1541872392718063,0.761719,-0.723145,0.0732422
1541872392739100,0.741699,-0.727539,0.0625
1541872392756116,0.726074,-0.729004,0.0595703
1541872392778114,0.712402,-0.753418,0.0366211
1541872392801153,0.696289,-0.772461,0.0463867
1541872392816165,0.674316,-0.785645,0.0585938
1541872392839183,0.637207,-0.76709,0.0454102
1541872392859200,0.633789,-0.797852,0.0229492
1541872392875213,0.626465,-0.835449,0.00439453
1541872392898221,0.585449,-0.856445,0.019043
1541872392919249,0.542969,-0.858887,0.0292969
1541872392935263,0.496094,-0.852539,0.0424805
1541872392958266,0.462891,-0.905273,0.0522461
1541872392979298,0.441895,-0.910156,0.0439453
1541872392995329,0.431641,-0.907227,0.0371094
1541872393018320,0.414063,-0.907227,0.0332031
1541872393039384,0.406738,-0.927734,0.0332031
1541872393055381,0.366699,-0.939453,0.0449219
1541872393078381,0.323242,-0.952148,0.0380859
1541872393100440,0.299805,-0.941406,0.0385742
1541872393115412,0.282227,-0.963379,0.0429688
1541872393138411,0.27002,-0.973145,0.0258789
1541872393160441,0.258789,-0.991699,0.0268555
1541872393175461,0.226563,-1.01416,0.0556641
1541872393198497,0.185059,-1.01758,0.0522461
1541872393220511,0.153809,-1.02686,0.03125
1541872393242516,0.108398,-1.02295,0.0258789
1541872393244513,0.0874023,-1.0249,0.012207
1541872393263568,0.0688477,-1.01025,0.00292969
1541872393286553,0.0258789,-1.0083,0.00732422
1541872393304567,-0.00195313,-1.02393,0.027832
1541872393323582,-0.0224609,-1.04199,0.0131836
1541872393346602,-0.043457,-1.04248,0.0288086
1541872393362597,-0.0419922,-1.06787,0.00244141
1541872393383631,-0.0595703,-1.03613,0.0439453
1541872393406650,-0.097168,-1.01221,0.0327148
1541872393422645,-0.148438,-0.983887,0.0224609
1541872393443682,-0.205566,-0.954102,0.0322266
1541872393466697,-0.224121,-0.95752,0.0288086
1541872393482715,-0.222656,-0.985352,0.0263672
1541872393503732,-0.233887,-0.956055,0.0263672
1541872393526740,-0.262695,-0.95166,0.019043
1541872393543763,-0.25,-0.957031,0.0180664
1541872393566783,-0.254883,-0.955078,0.0141602
1541872393585798,-0.279785,-0.960449,0.0180664
1541872393602804,-0.288574,-0.967285,0.0244141
1541872393623830,-0.296875,-0.984863,0.0126953
1541872393645848,-0.313477,-0.946777,0.0219727
1541872393662862,-0.327637,-0.967773,0.00976563
1541872393683879,-0.339844,-0.970703,0.0268555
1541872393705897,-0.358887,-0.952148,0.0288086
1541872393722911,-0.391602,-0.930176,0.0283203
1541872393743929,-0.398926,-0.921875,0.0273438
1541872393765947,-0.414063,-0.916504,0.0332031
1541872393782978,-0.421387,-0.936035,0.0229492
1541872393803978,-0.427734,-0.909668,0.015625
1541872393825996,-0.443359,-0.904785,0.0214844
1541872393843010,-0.435547,-0.914063,0.0209961
1541872393864023,-0.445313,-0.922363,0.0151367
1541872393886045,-0.454102,-0.902832,0.015625
1541872393903059,-0.458008,-0.905273,0.0205078
1541872393924078,-0.464844,-0.90332,0.0166016
1541872393946095,-0.467285,-0.888672,0.0200195
1541872393963109,-0.483887,-0.893066,0.0170898
1541872393984127,-0.494629,-0.905273,0.015625
1541872394006144,-0.492676,-0.899414,0.00488281
1541872394024150,-0.483887,-0.882813,0.00683594
1541872394044176,-0.484863,-0.885742,0.00488281
1541872394066194,-0.507813,-0.892578,0.00830078
1541872394084210,-0.502441,-0.89502,0.00146484
1541872394104220,-0.517578,-0.881348,0.00439453
1541872394126246,-0.492188,-0.873535,-0.00390625
1541872394144259,-0.51123,-0.878418,-0.000488281
1541872394164267,-0.52002,-0.880371,0.00830078
1541872394187294,-0.525391,-0.863281,0.0126953
1541872394201302,-0.536133,-0.86377,0.0170898
1541872394224322,-0.541016,-0.855469,0.019043
1541872394241339,-0.544922,-0.861816,0.0288086
1541872394264358,-0.541992,-0.864258,0.0239258
1541872394283373,-0.533203,-0.865723,0.00927734
1541872394301368,-0.53418,-0.864746,0.0141602
1541872394324407,-0.539063,-0.867188,0.0117188
1541872394343423,-0.535156,-0.865234,0.0161133
1541872394361420,-0.539551,-0.875488,0.0146484
1541872394384456,-0.532715,-0.879883,0.0249023
1541872394403473,-0.544922,-0.880859,0.0185547
1541872394421473,-0.54541,-0.870117,0.0185547
1541872394444506,-0.550293,-0.859375,0.00683594
1541872394463521,-0.555664,-0.864258,0.000488281
1541872394481530,-0.558105,-0.865234,-0.00195313
1541872394504546,-0.560547,-0.863281,-0.00195313
1541872394523571,-0.571777,-0.853027,0.00146484
1541872394541567,-0.577148,-0.853516,0.000976563
1541872394564605,-0.573242,-0.856934,0.00683594
1541872394583656,-0.570313,-0.855957,-0.000488281
1541872394601617,-0.573242,-0.858887,0.00390625
1541872394624655,-0.571777,-0.847168,0.00146484
1541872394645672,-0.577637,-0.84082,0.00244141
1541872394660665,-0.570313,-0.847656,-0.000488281
1541872394683721,-0.56543,-0.840332,0.00244141
1541872394704723,-0.559082,-0.84375,0.0078125
1541872394726739,-0.567383,-0.844727,0.0166016
1541872394743753,-0.571777,-0.845703,0.00341797
1541872394764772,-0.57373,-0.850098,-0.00488281
1541872394780763,-0.575195,-0.858887,0.000488281
1541872394803838,-0.575195,-0.858887,0.000488281
1541872394824854,-0.575195,-0.85791,-0.00292969
1541872394840812,-0.57959,-0.856445,-0.000976563
1541872394863851,-0.586914,-0.854004,0.00195313
1541872394884868,-0.581055,-0.85791,0.00537109
1541872394900863,-0.585449,-0.852051,0.00732422
1541872394923937,-0.594727,-0.84668,0.00390625
1541872394944919,-0.598633,-0.839355,0.00878906
1541872394959926,-0.604004,-0.845703,-0.000976563
1541872394980947,-0.576172,-0.822266,0.0131836
1541872395003967,-0.581543,-0.818848,0.0136719
1541872395019971,-0.581055,-0.828613,0.0146484
1541872395042999,-0.586426,-0.82666,0.00146484
1541872395064016,-0.585449,-0.829102,0.00683594
1541872395080014,-0.587891,-0.822754,0.00195313
1541872395103048,-0.595215,-0.835938,0.000488281
1541872395126049,-0.597656,-0.836914,-0.00244141
1541872395140062,-0.603027,-0.833984,0
1541872395163099,-0.607422,-0.830078,0.00488281
1541872395186116,-0.607422,-0.820313,0.00732422
1541872395200123,-0.604492,-0.828125,0.00537109
1541872395223148,-0.603516,-0.824707,0.00195313
1541872395246166,-0.598633,-0.822754,0.00341797
1541872395260161,-0.59375,-0.825684,0.00683594
1541872395283178,-0.587891,-0.831055,0.00830078
1541872395306217,-0.586426,-0.82959,0.0112305
1541872395320224,-0.587402,-0.833984,0.00878906
1541872395343243,-0.594727,-0.828613,0.00830078
1541872395366286,-0.592773,-0.839355,0.00732422
1541872395380258,-0.586426,-0.843262,0.00878906
1541872395403277,-0.583984,-0.850586,0.00585938
1541872395426310,-0.591797,-0.848145,0.00146484
1541872395440307,-0.592285,-0.855957,0.00341797
1541872395463328,-0.59082,-0.850586,0.00244141
1541872395486359,-0.59375,-0.855957,0.00585938
1541872395507381,-0.581543,-0.858887,0.00146484
1541872395523382,-0.581543,-0.859863,0.00537109
1541872395546414,-0.587891,-0.852539,0.012207
1541872395567466,-0.587402,-0.84668,0.0141602
1541872395583432,-0.589355,-0.848633,0.0112305
1541872395606498,-0.599609,-0.827637,0.0107422
1541872395627516,-0.591797,-0.830566,0.0117188
1541872395643474,-0.591797,-0.824707,0.00439453
1541872395666512,-0.592773,-0.813477,0.00927734
1541872395687530,-0.588379,-0.808105,0.00732422
1541872395704536,-0.584961,-0.811035,0.00292969
1541872395726556,-0.575684,-0.816406,0.000488281
1541872395747581,-0.570313,-0.825684,0.00195313
1541872395763574,-0.572754,-0.833496,0.00976563
1541872395786608,-0.576172,-0.845215,0.0078125
1541872395807629,-0.57959,-0.832031,0.0078125
1541872395823633,-0.584961,-0.820313,0
1541872395851665,-0.584961,-0.804688,0.00195313
1541872395866677,-0.588379,-0.794922,0.0117188
1541872395882684,-0.582031,-0.794434,0.0307617
1541872395905708,-0.564453,-0.791016,0.0263672
1541872395926726,-0.54834,-0.80127,0.0283203
1541872395942720,-0.520508,-0.818848,0.0244141
1541872395965742,-0.507324,-0.822754,0.0258789
1541872395988761,-0.508301,-0.804199,0.0322266
1541872396002770,-0.486328,-0.838379,0.0268555
1541872396025791,-0.45166,-0.824219,0.027832
1541872396048845,-0.4375,-0.820313,0.0292969
1541872396062821,-0.425781,-0.855469,0.0341797
1541872396085844,-0.398438,-0.930664,0.0219727
1541872396108877,-0.330566,-0.956055,0.0200195
1541872396129895,-0.220215,-0.979492,-0.0131836
1541872396145898,-0.209473,-1.00244,-0.000488281
1541872396168944,-0.190918,-1.0127,0.0200195
1541872396189944,-0.186035,-1.02588,0.0317383
1541872396205937,-0.156738,-1.02539,0.0454102
1541872396228977,-0.0546875,-1.06348,0.015625
1541872396248992,-0.0405273,-1.10303,0.0185547
1541872396265987,-0.0673828,-1.08545,0.0405273
1541872396289027,-0.0888672,-1.03418,0.0625
1541872396310044,-0.0893555,-0.975586,0.0664063
1541872396326037,0.0483398,-0.978027,0.015625
1541872396349073,0.111816,-1.05713,-0.00390625
1541872396370073,0.127441,-1.05908,0.0166016
1541872396386087,0.106445,-1.03662,0.0366211
1541872396409117,0.13916,-0.963379,0.0478516
1541872396430133,0.225586,-0.982422,0.0229492
1541872396446136,0.24707,-1.00293,0.0405273
1541872396469155,0.246094,-1.01514,0.0458984
1541872396490178,0.240234,-1.02246,0.0458984
1541872396506204,0.249512,-0.950684,0.0566406
1541872396528213,0.336426,-0.935059,0.0268555
1541872396550222,0.400879,-0.953125,0.0283203
1541872396566250,0.449707,-0.94043,0.0317383
1541872396588274,0.458008,-0.900879,0.0537109
1541872396609290,0.529297,-0.873047,0.0327148
1541872396626306,0.579102,-0.852539,0.0263672
1541872396648322,0.595703,-0.872559,0.034668
1541872396669339,0.612793,-0.855957,0.0366211
1541872396685335,0.611816,-0.855957,0.0551758
1541872396708368,0.637695,-0.815918,0.0634766
1541872396729389,0.646484,-0.800781,0.0678711
1541872396745383,0.696777,-0.780762,0.0595703
1541872396768417,0.713867,-0.753418,0.0673828
1541872396789439,0.756348,-0.713867,0.0556641
1541872396805442,0.76123,-0.686523,0.0830078
1541872396828460,0.770508,-0.67334,0.0654297
1541872396849483,0.788574,-0.655273,0.0678711
1541872396872541,0.794434,-0.649414,0.0737305
1541872396888500,0.791016,-0.658203,0.0893555
1541872396911539,0.794922,-0.662109,0.11377
1541872396925531,0.797852,-0.647949,0.107422
1541872396948549,0.803711,-0.624023,0.097168
1541872396971589,0.808594,-0.627441,0.0834961
1541872396985599,0.82373,-0.644043,0.0986328
1541872397008609,0.806641,-0.658691,0.101563
1541872397031637,0.821289,-0.593262,0.0864258
1541872397052655,0.853516,-0.533691,0.0952148
1541872397068660,0.864258,-0.467773,0.0913086
1541872397092687,0.874512,-0.441895,0.0952148
1541872397112705,0.88916,-0.426758,0.115234
1541872397128699,0.903809,-0.389648,0.121094
1541872397150717,0.898926,-0.402344,0.130371
1541872397172781,0.891602,-0.391602,0.121094
1541872397188749,0.891113,-0.380371,0.130371
1541872397210784,0.883301,-0.379395,0.125977
1541872397231803,0.891113,-0.398926,0.120117
1541872397248819,0.894531,-0.397949,0.126953
1541872397270880,0.892578,-0.394043,0.135254
1541872397291852,0.901367,-0.382813,0.114746
1541872397308866,0.898438,-0.405273,0.126465
1541872397330882,0.912598,-0.412109,0.123535
1541872397345896,0.90332,-0.45166,0.119141
1541872397368915,0.905762,-0.433594,0.112793
1541872397390931,0.905273,-0.410156,0.106445
1541872397411951,0.898926,-0.386719,0.105957
1541872397428964,0.893555,-0.352051,0.101074
1541872397450979,0.88916,-0.358887,0.108398
1541872397472036,0.886719,-0.365723,0.097168
1541872397489015,0.89209,-0.466797,0.0888672
1541872397511026,0.873535,-0.532715,0.0864258
1541872397532050,0.856445,-0.562012,0.0874023
1541872397549064,0.848633,-0.598633,0.0791016
1541872397571079,0.848633,-0.623535,0.0698242
1541872397592099,0.836426,-0.634277,0.0581055
1541872397608094,0.823242,-0.642578,0.0458984
1541872397616115,0.799805,-0.665527,0.0546875
1541872397637132,0.779785,-0.652832,0.0541992
1541872397659190,0.772461,-0.676758,0.0649414
1541872397674167,0.760254,-0.693848,0.0791016
1541872397696184,0.75,-0.709473,0.0615234
1541872397719204,0.73584,-0.748535,0.0512695
1541872397734217,0.707031,-0.794922,0.0527344
1541872397756235,0.681152,-0.799805,0.0463867
1541872397779290,0.652832,-0.817871,0.0415039
1541872397794266,0.62207,-0.832031,0.0566406
1541872397816265,0.599121,-0.861328,0.0405273
1541872397839303,0.572266,-0.860352,0.0395508
1541872397854316,0.55127,-0.867188,0.0356445
1541872397876334,0.525391,-0.879395,0.0244141
1541872397899353,0.501465,-0.876953,0.0244141
1541872397914365,0.480469,-0.907227,0.0322266
1541872397936384,0.424805,-0.935547,0.034668
1541872397959402,0.388184,-0.94043,0.0415039
1541872397974414,0.365234,-0.972168,0.0307617
1541872397996433,0.315918,-0.991211,0.0366211
1541872398019451,0.263184,-0.996582,0.0390625
1541872398034464,0.230957,-0.984863,0.0517578
1541872398056462,0.192871,-1.01709,0.0576172
1541872398079501,0.132813,-1.02637,0.0517578
1541872398097516,0.0996094,-1.01709,0.0385742
1541872398116531,0.11084,-1.0293,0.0117188
1541872398139550,0.0820313,-1.01221,-0.00195313
1541872398154546,0.0639648,-1.00928,0.00878906
1541872398176616,0.0371094,-1.03369,0.00537109
1541872398199637,-0.0117188,-1.03271,0.0244141
1541872398214613,-0.043457,-1.02393,0.0380859
1541872398236613,-0.0717773,-1.021,0.0268555
1541872398259692,-0.117676,-0.999512,0.0307617
1541872398274663,-0.154297,-0.993164,0.0180664
1541872398296680,-0.18457,-0.981934,0.027832
1541872398319697,-0.208008,-0.972656,0.0166016
1541872398334704,-0.273438,-0.955566,0.0366211
1541872398356730,-0.311523,-0.946289,0.050293
1541872398379745,-0.35498,-0.937988,0.0532227
1541872398394758,-0.359375,-0.946289,0.0380859
1541872398416779,-0.340332,-0.975098,0.0224609
1541872398434774,-0.337402,-0.970215,0.0195313
1541872398455803,-0.355957,-0.979004,0.0273438
1541872398477854,-0.336426,-0.972168,0.0297852
1541872398494832,-0.320801,-0.960449,0.0180664
1541872398515863,-0.323242,-0.955566,0.0322266
1541872398536877,-0.356445,-0.953613,0.0522461
1541872398554910,-0.393066,-0.966309,0.0620117
1541872398575910,-0.42041,-0.957031,0.0673828
1541872398596927,-0.467773,-0.915527,0.0917969
1541872398614943,-0.494141,-0.901855,0.0888672
1541872398635959,-0.513672,-0.894531,0.0966797
1541872398656977,-0.539551,-0.883789,0.102051
1541872398674987,-0.563965,-0.836426,0.109375
1541872398702014,-0.57959,-0.813965,0.101074
1541872398717025,-0.569336,-0.812988,0.0952148
1541872398735041,-0.608887,-0.783203,0.0932617
1541872398756058,-0.641113,-0.773438,0.102051
1541872398777059,-0.644531,-0.765137,0.105469
1541872398795126,-0.646973,-0.746582,0.107422
1541872398817090,-0.654297,-0.740234,0.101563
1541872398837125,-0.679199,-0.722656,0.101563
1541872398855141,-0.683594,-0.721191,0.125
1541872398877154,-0.719238,-0.683594,0.140137
1541872398897175,-0.719238,-0.686035,0.128906
1541872398915185,-0.746582,-0.681641,0.125
1541872398937188,-0.751465,-0.663574,0.124512
1541872398957224,-0.729492,-0.644531,0.127441
1541872398975230,-0.746582,-0.644043,0.125
1541872398997238,-0.748535,-0.648438,0.116699
1541872399017274,-0.731445,-0.646973,0.118164
1541872399035272,-0.742188,-0.631836,0.118164
1541872399057308,-0.773926,-0.625,0.124512
1541872399077323,-0.779297,-0.612793,0.128906
1541872399094338,-0.795898,-0.606934,0.129395
1541872399116336,-0.800781,-0.611816,0.136719
1541872399137374,-0.821777,-0.59375,0.141113
1541872399154391,-0.828125,-0.584961,0.139648
1541872399176386,-0.835938,-0.595215,0.120605
1541872399197422,-0.839355,-0.581543,0.111328
1541872399214417,-0.84082,-0.578125,0.104004
1541872399236436,-0.853027,-0.576172,0.109375
1541872399257472,-0.854004,-0.57373,0.112305
1541872399274468,-0.857422,-0.561035,0.12207
1541872399296499,-0.862305,-0.550293,0.119141
1541872399317521,-0.859375,-0.553711,0.130859
1541872399333534,-0.845703,-0.546387,0.133301
1541872399356552,-0.858887,-0.517578,0.133789
1541872399377570,-0.846191,-0.524902,0.140137
1541872399393579,-0.84668,-0.527832,0.127441
1541872399416598,-0.845215,-0.525879,0.12793
1541872399437620,-0.847168,-0.519531,0.135254
1541872399453624,-0.84082,-0.533691,0.140625
1541872399476652,-0.851074,-0.521484,0.155273
1541872399497652,-0.850586,-0.529297,0.164551
1541872399513682,-0.845703,-0.531738,0.154785
1541872399536703,-0.845703,-0.53125,0.141602
1541872399557719,-0.849609,-0.538086,0.146973
1541872399573715,-0.849121,-0.526367,0.148926
1541872399596751,-0.871582,-0.518555,0.151855
1541872399617768,-0.873047,-0.519531,0.144531
1541872399633772,-0.873047,-0.515625,0.143555
1541872399656801,-0.880859,-0.512695,0.144043
1541872399677817,-0.884766,-0.512695,0.146973
1541872399693814,-0.896484,-0.509766,0.155273
1541872399716851,-0.901855,-0.495117,0.15332
1541872399739872,-0.897949,-0.501953,0.145996
1541872399753860,-0.893066,-0.498047,0.137207
1541872399776883,-0.884766,-0.493652,0.138672
1541872399798909,-0.895508,-0.491699,0.147461
1541872399813921,-0.898438,-0.474609,0.146484
1541872399836993,-0.887207,-0.464844,0.145996
1541872399858959,-0.880859,-0.466797,0.146484
1541872399872962,-0.891113,-0.464355,0.147461
1541872399897033,-0.891113,-0.461426,0.145996
1541872399919000,-0.89209,-0.452148,0.137695
1541872399933029,-0.886719,-0.459473,0.131348
1541872399957045,-0.884766,-0.470703,0.123535
1541872399979066,-0.885742,-0.463867,0.13623
1541872399993058,-0.880859,-0.470703,0.136719
1541872400016096,-0.881348,-0.481934,0.13623
1541872400039116,-0.888672,-0.479492,0.13623
1541872400053124,-0.892578,-0.484375,0.140625
1541872400076145,-0.895508,-0.48877,0.14502
1541872400099150,-0.907227,-0.47998,0.148926
1541872400113158,-0.907715,-0.474609,0.150879
1541872400144201,-0.905273,-0.470703,0.147461
1541872400159208,-0.903809,-0.472168,0.149902
1541872400173206,-0.901855,-0.474609,0.141113
1541872400196232,-0.89502,-0.464355,0.145508
1541872400219264,-0.890625,-0.474609,0.143555
1541872400240281,-0.893555,-0.466797,0.143066
1541872400256276,-0.896484,-0.474121,0.140625
1541872400279304,-0.891602,-0.469727,0.140137
1541872400300326,-0.887695,-0.467285,0.133789
1541872400316338,-0.889648,-0.472168,0.133301
1541872400339365,-0.888184,-0.470215,0.127441
1541872400360415,-0.893066,-0.469727,0.12793
1541872400376376,-0.899902,-0.460449,0.122559
1541872400399416,-0.898926,-0.47168,0.115723
1541872400420464,-0.899414,-0.466309,0.125977
1541872400436433,-0.903809,-0.465332,0.130371
1541872400459461,-0.899414,-0.467773,0.129883
1541872400480480,-0.902344,-0.470215,0.129883
1541872400496483,-0.902832,-0.462402,0.120605
1541872400519511,-0.899902,-0.47168,0.121582
1541872400540529,-0.898926,-0.473145,0.123535
1541872400556526,-0.897461,-0.476563,0.132324
1541872400579561,-0.89502,-0.475586,0.133301
1541872400600579,-0.890137,-0.475586,0.137207
1541872400616572,-0.887207,-0.480957,0.137695
1541872400639603,-0.883301,-0.489746,0.126465
1541872400661628,-0.883789,-0.478027,0.125488
1541872400675643,-0.878906,-0.483887,0.129883
1541872400698659,-0.884277,-0.490234,0.121582
1541872400721659,-0.881348,-0.485352,0.104492
1541872400735672,-0.881348,-0.488281,0.0820313
1541872400758708,-0.883301,-0.490234,0.0932617
1541872400781708,-0.876953,-0.502441,0.105957
1541872400795737,-0.873535,-0.503906,0.108398
1541872400818755,-0.86377,-0.516602,0.10791
1541872400841777,-0.855957,-0.532715,0.10791
1541872400862794,-0.84668,-0.526367,0.103027
1541872400878824,-0.84375,-0.524902,0.0957031
1541872400901822,-0.834473,-0.535156,0.0908203
1541872400922880,-0.829102,-0.557617,0.0922852
1541872400938853,-0.827148,-0.563965,0.0732422
1541872400961878,-0.822266,-0.570801,0.0737305
1541872400982892,-0.829102,-0.578613,0.0922852
1541872400998899,-0.796875,-0.604492,0.0791016
1541872401021926,-0.800293,-0.595215,0.0825195
1541872401042978,-0.805664,-0.59668,0.0786133
1541872401058946,-0.775879,-0.621582,0.0615234
1541872401081975,-0.774414,-0.654297,0.0546875
1541872401103028,-0.739258,-0.685547,0.0390625
1541872401125010,-0.742676,-0.674316,0.0449219
1541872401142024,-0.764648,-0.653809,0.0644531
1541872401163041,-0.72168,-0.674316,0.0595703
1541872401179036,-0.683105,-0.723633,0.0366211
1541872401202075,-0.65918,-0.742676,0.0395508
1541872401223126,-0.637695,-0.765137,0.0317383
1541872401239085,-0.624023,-0.766602,0.0410156
1541872401262123,-0.626953,-0.783203,0.0498047
1541872401283141,-0.584473,-0.812012,0.0395508
1541872401299135,-0.545898,-0.842285,0.0258789
1541872401322153,-0.53125,-0.861328,0.0361328
1541872401343190,-0.527344,-0.868164,0.0292969
1541872401359186,-0.507324,-0.882324,0.0410156
1541872401381258,-0.429199,-0.904785,0.0126953
1541872401402234,-0.384277,-0.9375,-0.00830078
1541872401425258,-0.383789,-0.913574,0.0195313
1541872401441307,-0.348633,-0.918945,0.0341797
1541872401462288,-0.291504,-0.976074,0.0234375
1541872401478291,-0.23877,-1.00635,0.0297852
1541872401501358,-0.20459,-1.01025,-0.000976563
1541872401522337,-0.192383,-1.00684,0.0224609
1541872401538341,-0.186035,-1.02002,0.019043
1541872401561361,-0.12793,-1.02197,0.0185547
1541872401582388,-0.03125,-1.04346,-0.0268555
1541872401598380,-0.019043,-1.04004,-0.00878906
1541872401621410,-0.0463867,-1.04541,0.000488281
1541872401644441,-0.0703125,-1.04248,0.0292969
1541872401658431,-0.00830078,-1.05615,0.00146484
1541872401681452,0.0581055,-1.03613,0.000488281
1541872401704488,0.0849609,-1.01758,0.0112305
1541872401718480,0.0834961,-1.0166,0.012207
1541872401741505,0.0859375,-1.02832,0.0302734
1541872401764533,0.177734,-1.00732,-0.0107422
1541872401785590,0.208984,-0.987305,-0.0205078
1541872401801558,0.260742,-0.97998,-0.0161133
1541872401824587,0.263672,-0.996094,-0.00488281
1541872401845604,0.263184,-0.996582,0.0205078
1541872401861597,0.3125,-0.981445,-0.00341797
1541872401884637,0.374512,-0.949219,-0.0126953
1541872401905653,0.406738,-0.897949,-0.0180664
1541872401921647,0.456055,-0.926758,-0.0205078
1541872401944719,0.447754,-0.936523,0.00292969
1541872401965703,0.446289,-0.920898,0.0112305
1541872401981698,0.499023,-0.919922,0.00732422
1541872402004770,0.547852,-0.875,-0.0166016
1541872402009740,0.573242,-0.855469,-0.000976563
1541872402031793,0.602051,-0.844727,0.00830078
1541872402046771,0.600586,-0.84375,0.00976563
1541872402069788,0.637695,-0.846191,-0.000488281
1541872402091807,0.647949,-0.806152,0.0078125
1541872402106819,0.671875,-0.794434,-0.00585938
1541872402129874,0.714355,-0.779785,-0.00439453
1541872402151856,0.729492,-0.758789,0.00634766
1541872402166869,0.743164,-0.717773,0.0126953
1541872402189888,0.768066,-0.65918,0.0297852
1541872402211905,0.796875,-0.605957,0.0444336
1541872402226918,0.824219,-0.569336,0.0458984
1541872402249938,0.824707,-0.541016,0.0546875
1541872402271955,0.856445,-0.535156,0.0786133
1541872402286968,0.857422,-0.519043,0.0727539
1541872402309987,0.849121,-0.555664,0.0727539
1541872402328001,0.84375,-0.631836,0.0761719
1541872402347016,0.860352,-0.645508,0.0629883
1541872402370035,0.871094,-0.59082,0.0512695
1541872402388051,0.874023,-0.517578,0.059082
1541872402407062,0.86377,-0.484375,0.0776367
1541872402437091,0.874512,-0.46875,0.0898438
1541872402448092,0.892578,-0.431641,0.09375
1541872402467116,0.895996,-0.439453,0.0805664
1541872402497141,0.887695,-0.477051,0.0664063
1541872402508134,0.89209,-0.462891,0.0581055
1541872402527161,0.884277,-0.47168,0.0498047
1541872402550175,0.882324,-0.453125,0.0512695
1541872402567199,0.882813,-0.491211,0.0522461
1541872402587216,0.882324,-0.518555,0.059082
1541872402610221,0.885742,-0.477539,0.0585938
1541872402627248,0.886719,-0.452148,0.0498047
1541872402647264,0.878906,-0.487305,0.0620117
1541872402669283,0.879395,-0.478516,0.0717773
1541872402687289,0.878418,-0.450195,0.0693359
1541872402707309,0.879395,-0.442871,0.0786133
1541872402729332,0.876465,-0.483887,0.078125
1541872402747344,0.883301,-0.43457,0.0698242
1541872402767363,0.893066,-0.379395,0.050293
1541872402789382,0.884277,-0.379395,0.0600586
1541872402807377,0.879395,-0.415527,0.0620117
1541872402827414,0.868652,-0.399414,0.0629883
1541872402849431,0.867676,-0.410156,0.0703125
1541872402867428,0.871582,-0.42041,0.0634766
1541872402887465,0.875488,-0.500488,0.0415039
1541872402909481,0.856934,-0.586426,0.0390625
1541872402927475,0.837891,-0.616211,0.0195313
1541872402947511,0.831055,-0.626465,0.0273438
1541872402969513,0.815918,-0.642578,0.0175781
1541872402987540,0.80127,-0.647949,0.0405273
1541872403007561,0.786133,-0.645996,0.0498047
1541872403029574,0.777832,-0.696289,0.0161133
1541872403053595,0.783203,-0.743164,-0.00488281
1541872403067611,0.756836,-0.78418,-0.0175781
1541872403089629,0.730469,-0.822266,-0.0327148
1541872403107625,0.675781,-0.856934,-0.0268555
1541872403127660,0.612305,-0.885254,-0.00683594
1541872403149714,0.584473,-0.904785,-0.0268555
1541872403167693,0.559082,-0.921875,-0.0288086
1541872403188702,0.525879,-0.962891,-0.0444336
1541872403209728,0.462402,-0.96875,-0.0229492
1541872403227742,0.408691,-0.975586,-0.027832
1541872403248761,0.401367,-0.993164,-0.0341797
1541872403269777,0.390625,-0.986328,-0.0268555
1541872403287793,0.359375,-0.992188,-0.0307617
1541872403308806,0.308594,-0.991699,-0.0273438
1541872403329827,0.26709,-0.984863,-0.00634766
1541872403347841,0.263184,-0.996582,-0.0175781
1541872403368859,0.23877,-0.991699,-0.0297852
1541872403389912,0.184082,-0.992676,-0.0175781
1541872403407876,0.119629,-0.993164,-0.0107422
1541872403428908,0.0751953,-0.986816,0.00244141
1541872403450916,0.027832,-0.990723,0.0263672
1541872403466927,-0.0102539,-0.985352,0.012207
1541872403488958,-0.0366211,-1.00098,-0.00292969
1541872403509977,-0.0532227,-0.993164,-0.0268555
1541872403526989,-0.0786133,-0.978516,-0.0717773
1541872403548991,-0.0795898,-0.973145,-0.0834961
1541872403570024,-0.108398,-0.980957,-0.0712891
1541872403587038,-0.154297,-1.0376,-0.0405273
1541872403609091,-0.214844,-1.00635,-0.0131836
1541872403630074,-0.249512,-0.958984,-0.00341797
1541872403647088,-0.297852,-0.978516,0.0107422
1541872403669107,-0.337402,-0.994629,0.0253906
1541872403690124,-0.365723,-0.958008,0.0322266
1541872403707137,-0.374512,-0.941406,0.0146484
1541872403729139,-0.386719,-0.930176,0.0239258
1541872403750174,-0.411621,-0.906738,0.0117188
1541872403767187,-0.441406,-0.925293,0.0151367
1541872403789190,-0.470703,-0.90625,0.03125
1541872403810223,-0.510254,-0.885742,0.0498047
1541872403827237,-0.498535,-0.86377,0.0439453
1541872403849240,-0.51709,-0.872559,0.0585938
1541872403870271,-0.530273,-0.858887,0.0571289
1541872403887286,-0.547852,-0.856934,0.059082
1541872403909295,-0.564941,-0.846191,0.0668945
1541872403930321,-0.583984,-0.809082,0.0673828
1541872403947336,-0.625,-0.763672,0.0805664
1541872403969349,-0.644531,-0.777832,0.081543
1541872403990378,-0.666992,-0.752441,0.0771484
1541872404007385,-0.652832,-0.736816,0.0639648
1541872404029394,-0.67041,-0.707031,0.0571289
1541872404050421,-0.695801,-0.720215,0.0698242
1541872404067429,-0.712891,-0.708008,0.0634766
1541872404089434,-0.722168,-0.691406,0.0683594
1541872404110470,-0.717285,-0.688965,0.0673828
1541872404127471,-0.725098,-0.690918,0.0517578
1541872404149483,-0.736328,-0.686035,0.0688477
1541872404170520,-0.750488,-0.681641,0.0776367
1541872404186532,-0.766602,-0.667969,0.0893555
1541872404209551,-0.77832,-0.657715,0.0874023
1541872404230603,-0.769531,-0.664551,0.0957031
1541872404246583,-0.779297,-0.663574,0.0849609
1541872404269583,-0.76709,-0.658203,0.081543
1541872404290618,-0.770996,-0.647461,0.074707
1541872404306613,-0.778809,-0.644531,0.0825195
1541872404329650,-0.772461,-0.650391,0.0957031
1541872404350702,-0.789551,-0.655273,0.0957031
1541872404366681,-0.785645,-0.645508,0.105469
1541872404389701,-0.797363,-0.648926,0.102051
1541872404411710,-0.798828,-0.637695,0.114258
1541872404426730,-0.79541,-0.618652,0.116699
1541872404456736,-0.79541,-0.620117,0.115723
1541872404471750,-0.780762,-0.62207,0.120117
1541872404486780,-0.789551,-0.609375,0.117188
1541872404509799,-0.796387,-0.592773,0.125488
1541872404531800,-0.799316,-0.606445,0.111328
1541872404552870,-0.800293,-0.60498,0.104492
1541872404569849,-0.81543,-0.588867,0.118652
1541872404591857,-0.814941,-0.589355,0.112793
1541872404606870,-0.8125,-0.592285,0.121582
1541872404629899,-0.830566,-0.583984,0.115234
1541872404651897,-0.824707,-0.589355,0.106445
1541872404666914,-0.831543,-0.587402,0.100098
1541872404689948,-0.83252,-0.570313,0.0991211
1541872404711956,-0.842285,-0.579102,0.0991211
1541872404725978,-0.846191,-0.572266,0.0976563
1541872404749999,-0.845703,-0.571777,0.0942383
1541872404772008,-0.84082,-0.57959,0.0976563
1541872404786041,-0.852051,-0.57373,0.103027
1541872404810043,-0.855469,-0.566406,0.11084
1541872404832054,-0.86377,-0.563477,0.109375
1541872404846069,-0.865723,-0.564941,0.112305
1541872404869096,-0.870605,-0.556152,0.106934
1541872404892114,-0.865234,-0.55127,0.105957
1541872404906123,-0.86084,-0.550293,0.10498
1541872404929145,-0.847656,-0.555664,0.10791
1541872404952164,-0.841309,-0.550781,0.106934
1541872404973216,-0.843262,-0.555176,0.105469
1541872404989176,-0.84082,-0.558105,0.0908203
1541872405012204,-0.834961,-0.555664,0.0893555
1541872405033230,-0.832031,-0.554199,0.0854492
1541872405049224,-0.839355,-0.562988,0.09375
1541872405072264,-0.847656,-0.55127,0.09375
1541872405093280,-0.85498,-0.555664,0.0922852
1541872405109274,-0.859863,-0.558594,0.0917969
1541872405132295,-0.835938,-0.555176,0.0986328
1541872405153329,-0.870605,-0.538086,0.113281
1541872405169339,-0.893066,-0.551758,0.106445
1541872405184352,-0.867676,-0.541504,0.101074
1541872405205353,-0.866699,-0.538086,0.104492
1541872405221367,-0.867676,-0.527344,0.10498
1541872405244385,-0.85498,-0.530762,0.107422
1541872405265402,-0.859375,-0.527344,0.107422
1541872405281419,-0.859863,-0.527832,0.101074
1541872405304434,-0.858887,-0.525879,0.0878906
1541872405333478,-0.85498,-0.533203,0.0952148
1541872405349471,-0.858887,-0.529785,0.0883789
1541872405372493,-0.865723,-0.522949,0.097168
1541872405393565,-0.863281,-0.536133,0.0952148
1541872405409522,-0.867188,-0.542969,0.0947266
1541872405432559,-0.873047,-0.540039,0.101563
1541872405454568,-0.870605,-0.544434,0.106934
1541872405469581,-0.869141,-0.541504,0.108887
1541872405492603,-0.871582,-0.537109,0.101563
1541872405514612,-0.866211,-0.541504,0.0976563
1541872405528632,-0.863281,-0.53418,0.10498
1541872405552652,-0.859863,-0.536133,0.100098
1541872405574677,-0.861328,-0.538086,0.102539
1541872405588676,-0.861328,-0.537598,0.107422
1541872405611707,-0.865234,-0.542969,0.0952148
1541872405634726,-0.862793,-0.540039,0.106445
1541872405648735,-0.863281,-0.550781,0.0888672
1541872405671753,-0.860352,-0.548828,0.0966797
1541872405694775,-0.858887,-0.545898,0.0957031
1541872405708778,-0.858398,-0.549805,0.0947266
1541872405731803,-0.85791,-0.552246,0.0957031
1541872405754816,-0.857422,-0.551758,0.0927734
1541872405768819,-0.858398,-0.550781,0.103516
1541872405791852,-0.85498,-0.54834,0.100098
1541872405814892,-0.854004,-0.544922,0.0864258
1541872405828866,-0.853027,-0.541504,0.078125
1541872405851886,-0.859863,-0.536133,0.0791016
1541872405874919,-0.86084,-0.531738,0.0888672
1541872405895977,-0.858887,-0.54248,0.103516
1541872405911941,-0.856445,-0.541992,0.104004
1541872405934969,-0.864258,-0.551758,0.0942383
1541872405955992,-0.862305,-0.549316,0.0854492
1541872405971984,-0.860352,-0.553223,0.0830078
1541872405995023,-0.851563,-0.554688,0.0864258
1541872406016041,-0.852051,-0.55127,0.0952148
1541872406032033,-0.844238,-0.556641,0.0947266
1541872406055071,-0.844727,-0.555176,0.0883789
1541872406076090,-0.836426,-0.547852,0.0913086
1541872406092084,-0.828125,-0.549316,0.0869141
1541872406115119,-0.822754,-0.543945,0.0830078
1541872406136139,-0.818848,-0.546875,0.0834961
1541872406151133,-0.805176,-0.562012,0.0634766
1541872406175206,-0.799316,-0.566406,0.0703125
1541872406196184,-0.799805,-0.566406,0.0605469
1541872406211198,-0.794434,-0.568848,0.0561523
1541872406234220,-0.788574,-0.597168,0.0620117
1541872406255238,-0.765625,-0.63916,0.0703125
1541872406271241,-0.75,-0.658691,0.0664063
1541872406294270,-0.744629,-0.655273,0.0498047
1541872406317288,-0.754395,-0.658691,0.0532227
1541872406331285,-0.769043,-0.675781,0.0444336
1541872406354318,-0.724121,-0.687988,0.0522461
1541872406377333,-0.717285,-0.701172,0.0541992
1541872406399398,-0.691895,-0.73291,0.0561523
1541872406414369,-0.663086,-0.774414,0.0688477
1541872406420373,-0.600586,-0.784668,0.0634766
1541872406442392,-0.60498,-0.800293,0.0493164
1541872406459406,-0.560059,-0.833496,0.0385742
1541872406480424,-0.509766,-0.864258,0.0351563
1541872406502441,-0.491211,-0.88623,0.0361328
1541872406519456,-0.473633,-0.903809,0.0483398
1541872406540473,-0.427246,-0.931641,0.0253906
1541872406562490,-0.414551,-0.936523,0.0405273
1541872406579505,-0.403809,-0.958496,0.0410156
1541872406600559,-0.38916,-0.976563,0.046875
1541872406622540,-0.372559,-0.98291,0.0644531
1541872406639552,-0.343262,-0.961426,0.0375977
1541872406660571,-0.299805,-0.966797,0.0356445
1541872406682589,-0.285645,-0.979004,0.0297852
1541872406699594,-0.263184,-0.991699,0.0366211
1541872406720616,-0.213379,-0.982422,0.0180664
1541872406742639,-0.182129,-0.96875,0.0175781
1541872406758652,-0.15918,-0.988281,0.0253906
1541872406780666,-0.111328,-1.03076,0.0141602
1541872406802684,-0.0302734,-1.04443,-0.00878906
1541872406818743,-0.0107422,-1.05078,-0.0195313
1541872406839718,-0.0268555,-1.04541,-0.00195313
1541872406862738,-0.0458984,-1.04932,0.0146484
1541872406878748,-0.0375977,-1.03369,0.0219727
1541872406899769,0.0117188,-1.01563,0.0141602
1541872406922787,0.0615234,-1.03467,0.00439453
1541872406938784,0.0810547,-1.03027,0.0102539
1541872406959818,0.0874023,-1.02344,0.00634766
1541872406982837,0.116211,-1.00977,0.0209961
1541872406998830,0.149414,-1.01123,0.0336914
1541872407019903,0.174316,-1.02002,0.0366211
1541872407042887,0.186035,-0.998047,0.0615234
1541872407058894,0.210938,-0.968262,0.0400391
1541872407079917,0.256348,-0.960938,0.034668
1541872407102936,0.294922,-0.981445,0.0175781
1541872407118940,0.314941,-1.021,0.0361328
1541872407139967,0.317383,-0.973633,0.0556641
1541872407163023,0.355469,-0.922363,0.0556641
1541872407178981,0.404297,-0.917969,0.0371094
1541872407200016,0.427734,-0.968262,0.0429688
1541872407223034,0.440918,-0.95166,0.0380859
1541872407239029,0.461426,-0.92334,0.0405273
1541872407260066,0.481445,-0.896484,0.0415039
1541872407283085,0.490234,-0.901855,0.0493164
1541872407301091,0.513672,-0.902344,0.0400391
1541872407320115,0.532715,-0.854004,0.0375977
1541872407343116,0.565918,-0.835449,0.0478516
1541872407361163,0.580078,-0.848633,0.0380859
1541872407380164,0.581543,-0.876953,0.0478516
1541872407403166,0.581055,-0.873535,0.0390625
1541872407420198,0.583496,-0.881836,0.0424805
1541872407440194,0.580566,-0.86377,0.0307617
1541872407463213,0.600098,-0.833008,0.0332031
1541872407480282,0.591797,-0.808105,0.0527344
1541872407500264,0.621582,-0.811035,0.0390625
1541872407522282,0.62793,-0.805664,0.0439453
1541872407540330,0.643555,-0.786133,0.0405273
1541872407560312,0.666016,-0.734375,0.0405273
1541872407578328,0.685059,-0.743652,0.0375977
1541872407600333,0.704102,-0.745605,0.0292969
1541872407620348,0.697266,-0.743164,0.0351563
1541872407638376,0.714844,-0.72998,0.0361328
1541872407660392,0.712891,-0.708984,0.0415039
1541872407680411,0.723633,-0.698242,0.0351563
1541872407698426,0.745117,-0.685059,0.0336914
1541872407720426,0.756348,-0.671387,0.0410156
1541872407740460,0.765137,-0.65918,0.0458984
1541872407758476,0.774414,-0.634766,0.0566406
1541872407780474,0.781738,-0.615234,0.0532227
1541872407800546,0.79541,-0.599609,0.0532227
1541872407818525,0.806152,-0.588379,0.0537109
1541872407839534,0.803223,-0.572754,0.0664063
1541872407860559,0.79541,-0.597656,0.0722656
1541872407876553,0.816406,-0.583008,0.0805664
1541872407899573,0.816895,-0.577637,0.0791016
1541872407920609,0.813965,-0.562988,0.0751953
1541872407937623,0.827637,-0.572266,0.0791016
1541872407959623,0.822754,-0.599609,0.0922852
1541872407980659,0.836426,-0.597656,0.0922852
1541872407997673,0.825684,-0.589844,0.0844727
1541872408019672,0.82666,-0.583008,0.0834961
1541872408040709,0.828613,-0.583496,0.0859375
1541872408064719,0.833984,-0.600586,0.0864258
1541872408079730,0.838867,-0.613281,0.0864258
1541872408100758,0.839355,-0.589355,0.0727539
1541872408124762,0.837402,-0.545898,0.0688477
1541872408139770,0.832031,-0.521973,0.0732422
1541872408160842,0.838867,-0.48877,0.0830078
1541872408177821,0.844727,-0.474609,0.0825195
1541872408199835,0.845215,-0.46582,0.0800781
1541872408222859,0.844727,-0.495117,0.0678711
1541872408236869,0.846191,-0.532715,0.0595703
1541872408259872,0.833984,-0.580078,0.0585938
1541872408282903,0.799805,-0.604492,0.0649414
1541872408296919,0.793945,-0.636719,0.0698242
1541872408319920,0.802734,-0.648926,0.0688477
1541872408342951,0.799316,-0.637207,0.0688477
1541872408363984,0.799805,-0.652832,0.0673828
1541872408379970,0.787109,-0.687988,0.0805664
1541872408401986,0.769531,-0.715332,0.0688477
1541872408424015,0.759277,-0.716797,0.0605469
1541872408440038,0.746582,-0.731445,0.0385742
1541872408462091,0.727051,-0.760254,0.0356445
1541872408483110,0.698242,-0.792969,0.0224609
1541872408500080,0.682129,-0.820313,0.034668
1541872408522105,0.657227,-0.838379,0.0288086
1541872408543122,0.638184,-0.82959,0.0170898
1541872408560136,0.627441,-0.842285,0.0209961
1541872408582145,0.597656,-0.856934,0.0136719
1541872408603172,0.561523,-0.878906,0.0117188
1541872408620186,0.53418,-0.872559,0.019043
1541872408642201,0.5,-0.904297,0.0253906
1541872408663221,0.493164,-0.918457,0.00976563
1541872408680235,0.472656,-0.914063,0.0151367
1541872408702248,0.435547,-0.904297,0.0195313
1541872408723272,0.407227,-0.929199,0.015625
1541872408740285,0.37793,-0.951172,0.0126953
1541872408762287,0.335938,-0.984375,0.0205078
1541872408783318,0.286621,-0.973633,0.0200195
1541872408800369,0.274902,-0.980469,0.0078125
1541872408822343,0.225098,-0.993164,0.00341797
1541872408843370,0.192871,-1.00586,0.00195313
1541872408859382,0.151855,-1.00635,0.00976563
1541872408882389,0.107422,-1.00488,0.0107422
1541872408903420,0.0805664,-1,0.00292969
1541872408920433,0.0483398,-1.01563,-0.0102539
1541872408942443,0.0136719,-1.01318,-0.00146484
1541872408963468,-0.0209961,-1.00684,0.0161133
1541872408979482,-0.0410156,-1.00977,-0.00585938
1541872409002501,-0.0786133,-0.994629,0.0117188
1541872409023518,-0.11084,-0.998047,0.012207
1541872409039512,-0.147949,-0.996094,0.0102539
1541872409062532,-0.166992,-0.990234,-0.000976563
1541872409083548,-0.188477,-0.98291,0.00439453
1541872409099562,-0.205566,-0.992676,-0.0078125
1541872409122582,-0.242676,-0.965332,-0.00292969
1541872409143597,-0.262695,-0.966797,0.00537109
1541872409159611,-0.296875,-0.973145,-0.0161133
1541872409182646,-0.319336,-0.958008,-0.0180664
1541872409204648,-0.331055,-0.950195,-0.0131836
1541872409219661,-0.365723,-0.935547,-0.00732422
1541872409242679,-0.408203,-0.95166,0.012207
1541872409264699,-0.42627,-0.931152,0.0136719
1541872409279710,-0.42041,-0.920898,-0.000976563
1541872409302729,-0.442383,-0.916016,-0.00488281
1541872409324748,-0.478027,-0.913086,0.00634766
1541872409345774,-0.476563,-0.895508,0.00439453
1541872409362778,-0.491699,-0.876465,-0.0136719
1541872409384800,-0.506836,-0.856445,-0.0175781
1541872409405833,-0.516602,-0.865723,-0.0195313
1541872409422847,-0.527832,-0.868652,-0.012207
1541872409444845,-0.544434,-0.862305,-0.00732422
1541872409465883,-0.542969,-0.851563,-0.0102539
1541872409482897,-0.570313,-0.837402,-0.000488281
1541872409504895,-0.57373,-0.830078,0.00292969
1541872409525923,-0.591797,-0.827637,0.00292969
1541872409542927,-0.609375,-0.812012,0.000488281
1541872409564945,-0.616211,-0.802734,0.00683594
1541872409585967,-0.618164,-0.796875,0.0131836
1541872409602977,-0.633301,-0.791016,0.00732422
1541872409624994,-0.637207,-0.776855,0.0131836
1541872409646025,-0.649414,-0.787598,0.00878906
1541872409663040,-0.665039,-0.76416,-0.00146484
1541872409685043,-0.661621,-0.756836,0.00292969
1541872409706061,-0.684082,-0.751465,0
1541872409729082,-0.68457,-0.751953,-0.00537109
1541872409745095,-0.686035,-0.744629,0.00537109
1541872409766133,-0.703125,-0.73584,0.000488281
1541872409782126,-0.702637,-0.751953,0.00830078
1541872409805144,-0.709961,-0.743164,0.00439453
1541872409826180,-0.714844,-0.731934,0.00146484
1541872409842188,-0.723145,-0.730469,0.012207
1541872409865207,-0.737793,-0.723145,0.0170898
1541872409886229,-0.742188,-0.722168,0.0229492
1541872409902222,-0.746582,-0.70752,0.0166016
1541872409925254,-0.731934,-0.703613,0.0146484
1541872409946278,-0.739746,-0.696777,0.00927734
1541872409962291,-0.736328,-0.700684,0.00439453
1541872409985292,-0.733398,-0.680176,0.0078125
1541872410006327,-0.73877,-0.665039,0.00634766
1541872410022341,-0.73877,-0.671387,0.00878906
1541872410045359,-0.739258,-0.687012,0.00292969
1541872410066413,-0.757324,-0.679199,0.0136719
1541872410082373,-0.759766,-0.677734,0.0151367
1541872410105410,-0.764648,-0.682129,0.0102539
1541872410126462,-0.769531,-0.702637,0.0185547
1541872410142432,-0.772461,-0.693359,0.0161133
1541872410165459,-0.786133,-0.687012,0.0141602
1541872410187457,-0.782715,-0.691406,0.0249023
1541872410202469,-0.791016,-0.682129,0.0239258
1541872410225543,-0.788574,-0.67627,0.0209961
1541872410247507,-0.787109,-0.666504,0.0263672
1541872410262519,-0.786621,-0.658691,0.0322266
1541872410285558,-0.786133,-0.658691,0.0258789
1541872410307567,-0.796387,-0.649414,0.0224609
1541872410321623,-0.792969,-0.651367,0.0292969
1541872410345607,-0.789551,-0.64502,0.0268555
1541872410367606,-0.789551,-0.645508,0.0200195
1541872410381655,-0.788086,-0.634277,0.0175781
1541872410412654,-0.789551,-0.632324,0.0214844
1541872410427657,-0.797852,-0.62793,0.0200195
1541872410441679,-0.807129,-0.624023,0.0126953
1541872410464726,-0.800781,-0.625,0.0151367
1541872410487725,-0.796875,-0.637695,0.0170898
1541872410501733,-0.793945,-0.633789,0.0126953
1541872410524755,-0.801758,-0.639648,0.0112305
1541872410547774,-0.803223,-0.640625,0.00732422
1541872410561783,-0.804199,-0.641113,0.00927734
1541872410584805,-0.807617,-0.634277,0.0117188
1541872410607823,-0.807129,-0.637207,0.0151367
1541872410628842,-0.805664,-0.625488,0.015625
1541872410644835,-0.800781,-0.64209,0.0219727
1541872410667856,-0.804199,-0.635742,0.0200195
1541872410688890,-0.805664,-0.630859,0.0219727
1541872410704885,-0.805176,-0.63623,0.0253906
1541872410727922,-0.808594,-0.628906,0.0214844
1541872410748939,-0.806641,-0.619629,0.0224609
1541872410764939,-0.803711,-0.620605,0.0131836
1541872410787990,-0.804199,-0.611816,0.0126953
1541872410808990,-0.804199,-0.620117,0.00878906
1541872410824993,-0.811523,-0.622559,0.0131836
1541872410831007,-0.814941,-0.617188,0.0107422
1541872410853025,-0.815918,-0.625488,0.00683594
1541872410876028,-0.814453,-0.620117,0.0170898
1541872410891057,-0.818359,-0.624023,0.0146484
1541872410913075,-0.814941,-0.624512,0.0166016
1541872410936089,-0.821289,-0.629883,0.019043
1541872410951094,-0.813477,-0.624512,0.0117188
1541872410973108,-0.816895,-0.619141,0.0151367
1541872410991138,-0.825684,-0.616211,0.0131836
1541872411010155,-0.816406,-0.623535,0.0102539
1541872411033174,-0.802734,-0.621582,0.0141602
1541872411051189,-0.804199,-0.625488,0.00878906
1541872411070204,-0.805664,-0.623535,0.00976563
1541872411093223,-0.811035,-0.621094,0.0151367
1541872411111239,-0.806641,-0.619629,-0.000976563
1541872411130254,-0.809082,-0.630371,0.00585938
1541872411153273,-0.803223,-0.625488,0.00244141
1541872411171283,-0.80957,-0.628906,0.0102539
1541872411190303,-0.815918,-0.626465,0.0112305
1541872411213319,-0.817383,-0.621582,0.0102539
1541872411231353,-0.817871,-0.615723,0.00976563
1541872411250388,-0.81543,-0.616699,0.0151367
1541872411273372,-0.810547,-0.616211,0.00927734
1541872411291386,-0.808105,-0.608887,0.0136719
1541872411310403,-0.80957,-0.618652,0.0102539
1541872411333421,-0.810059,-0.612305,0.0229492
1541872411351436,-0.805664,-0.605469,0.0273438
1541872411370451,-0.79541,-0.611816,0.027832
1541872411393471,-0.775391,-0.618164,0.0175781
1541872411415489,-0.769043,-0.608887,0.0161133
1541872411430501,-0.75293,-0.617676,0.00537109
1541872411453521,-0.731934,-0.621094,0.0131836
1541872411475534,-0.71582,-0.637695,0.0195313
1541872411490534,-0.688965,-0.644531,0.0195313
1541872411513607,-0.682617,-0.664063,0.0136719
1541872411531565,-0.633789,-0.719238,0.00292969
1541872411550600,-0.655762,-0.728516,0.0112305
1541872411573615,-0.657227,-0.763184,0.00927734
1541872411590634,-0.621582,-0.797363,0.0161133
1541872411610650,-0.543945,-0.831543,0.0146484
1541872411633649,-0.557129,-0.865723,-0.00292969
1541872411650685,-0.552734,-0.901855,0.00830078
1541872411670700,-0.503906,-0.908203,-0.00732422
1541872411692717,-0.461426,-0.930176,-0.0175781
1541872411710733,-0.428223,-0.969238,-0.00878906
1541872411731750,-0.431641,-1.00195,0.00683594
1541872411752767,-0.417969,-0.955078,0.00585938
1541872411770775,-0.371094,-0.935547,-0.0117188
1541872411791834,-0.345703,-0.960938,-0.0136719
1541872411812816,-0.328613,-0.995117,-0.00878906
1541872411830811,-0.299316,-0.991699,-0.0107422
1541872411851829,-0.267578,-0.979004,-0.0146484
1541872411872849,-0.246582,-0.989746,-0.0126953
1541872411890877,-0.241699,-1.00391,-0.0131836
1541872411911879,-0.21582,-1.00293,-0.0131836
1541872411932915,-0.208496,-1.00195,-0.015625
1541872411950914,-0.191895,-1,-0.0151367
1541872411971929,-0.150391,-1.00342,-0.0146484
1541872411992965,-0.108398,-1.02295,-0.0209961
1541872412010969,-0.103027,-1.03516,-0.0205078
1541872412033999,-0.104004,-1.03516,-0.0102539
1541872412053014,-0.0722656,-1.01904,-0.0209961
1541872412071009,-0.0625,-1.01074,-0.0229492
1541872412094043,-0.0458984,-1.03223,-0.0185547
1541872412113100,-0.0454102,-1.03467,-0.0253906
1541872412131074,-0.0200195,-1.021,-0.012207
1541872412154093,0.0234375,-0.984375,-0.00634766
1541872412173148,0.119629,-0.969727,-0.0419922
1541872412191109,0.14209,-1.03369,-0.0336914
1541872412214162,0.138672,-1.03418,-0.0283203
1541872412233164,0.140137,-1.00293,-0.0195313
1541872412250157,0.162109,-0.980957,-0.0244141
1541872412273196,0.206055,-1.0083,-0.0209961
1541872412294249,0.215332,-1.02588,-0.0131836
1541872412310206,0.203125,-1.0166,-0.0175781
1541872412333245,0.226563,-1.00635,-0.0107422
1541872412354263,0.263672,-0.967285,-0.0146484
1541872412370257,0.316406,-0.958496,-0.0214844
1541872412393325,0.347168,-0.978516,-0.0200195
1541872412414313,0.352539,-0.958496,-0.019043
1541872412430306,0.359375,-0.954102,-0.000976563
1541872412453378,0.384277,-0.945313,-0.0161133
1541872412474355,0.414063,-0.928711,-0.000976563
1541872412490366,0.446289,-0.932129,-0.0170898
1541872412513403,0.462891,-0.926758,0.00146484
1541872412534403,0.461426,-0.912598,0.00537109
1541872412550423,0.483887,-0.88623,0.0131836
1541872412573440,0.532715,-0.859375,0.00732422
1541872412594451,0.564453,-0.852051,0.000488281
1541872412610469,0.57959,-0.856934,-0.00488281
1541872412632492,0.581543,-0.821777,0.00683594
1541872412653509,0.608398,-0.809082,0.00927734
1541872412670523,0.630371,-0.827148,0.00439453
1541872412692542,0.657715,-0.779297,0.0117188
1541872412713558,0.680664,-0.768555,0.0146484
1541872412730569,0.695801,-0.729004,0.0234375
1541872412752581,0.700684,-0.727539,0.0200195
1541872412773608,0.711426,-0.72168,0.00927734
1541872412789601,0.716309,-0.720703,0.0214844
1541872412812624,0.722656,-0.716797,0.0141602
1541872412833657,0.732422,-0.720703,0.0249023
1541872412849666,0.745117,-0.708496,0.0288086
1541872412872671,0.765625,-0.673828,0.0268555
1541872412893690,0.777832,-0.645508,0.0317383
1541872412909700,0.801758,-0.605957,0.0371094
1541872412932729,0.806641,-0.583008,0.0439453
1541872412953756,0.828613,-0.565918,0.0410156
1541872412969761,0.835449,-0.547852,0.0561523
1541872412992768,0.837891,-0.532715,0.0327148
1541872413015844,0.847168,-0.525879,0.0322266
1541872413029799,0.847656,-0.539551,0.0292969
1541872413052833,0.852051,-0.555176,0.0375977
1541872413075857,0.850586,-0.578125,0.0546875
1541872413089848,0.855469,-0.577148,0.0478516
1541872413112868,0.857422,-0.568848,0.0366211
1541872413135906,0.86377,-0.578125,0.0439453
1541872413156923,0.854004,-0.593262,0.0541992
1541872413172926,0.855957,-0.558105,0.0722656
1541872413195952,0.865723,-0.537109,0.0727539
1541872413209963,0.858887,-0.490723,0.0708008
1541872413232968,0.861328,-0.54248,0.0629883
1541872413255986,0.85498,-0.570313,0.0620117
1541872413277013,0.841309,-0.588867,0.0585938
1541872413293018,0.830566,-0.620117,0.0429688
1541872413316051,0.830078,-0.618164,0.0317383
1541872413336071,0.822266,-0.635742,0.0444336
1541872413353085,0.813965,-0.654785,0.0366211
1541872413375101,0.786133,-0.685059,0.0317383
1541872413396121,0.765625,-0.716309,0.0180664
1541872413413135,0.758301,-0.748047,0.00488281
1541872413435151,0.738281,-0.744141,0.015625
1541872413456170,0.714355,-0.75293,0.027832
1541872413473167,0.695801,-0.755371,0.00830078
1541872413495200,0.687988,-0.786621,-0.0161133
1541872413516222,0.671875,-0.791016,-0.0185547
1541872413533253,0.647461,-0.780762,-0.0151367
1541872413555234,0.620605,-0.792969,-0.0161133
1541872413576266,0.582031,-0.880371,-0.0170898
1541872413593283,0.503418,-0.898926,-0.0126953
1541872413616302,0.474609,-0.904785,-0.015625
1541872413636356,0.467285,-0.937988,-0.0327148
1541872413653333,0.398438,-0.954102,-0.0195313
1541872413675339,0.370117,-0.980957,-0.0385742
1541872413696367,0.335938,-0.970703,-0.0332031
1541872413712363,0.317383,-0.934082,-0.0327148
1541872413735381,0.331055,-0.946777,-0.0449219
1541872413756417,0.293457,-0.975586,-0.0488281
1541872413772432,0.237305,-1.00049,-0.0288086
1541872413795431,0.176758,-1.00635,-0.0219727
1541872413816503,0.126465,-1.03662,-0.0307617
1541872413832462,0.065918,-1.03369,-0.0209961
1541872413857494,0.0268555,-0.997559,-0.0102539
1541872413876516,0.0131836,-1.00195,-0.0219727
1541872413892530,-0.0322266,-1.00293,-0.0620117
1541872413915530,-0.0302734,-1.01074,-0.090332
1541872413937567,-0.0820313,-0.987305,-0.0498047
1541872413952579,-0.11084,-0.987793,-0.0952148
1541872413975587,-0.121582,-1.00977,-0.105957
1541872413997617,-0.177246,-0.994141,-0.0825195
1541872414012629,-0.180664,-0.965332,-0.0932617
1541872414035648,-0.185059,-0.980957,-0.104492
1541872414057707,-0.192871,-0.995117,-0.11084
1541872414078683,-0.23584,-0.961914,-0.110352
1541872414095697,-0.273926,-0.981934,-0.121094
1541872414117754,-0.300781,-0.964844,-0.0961914
1541872414138732,-0.353027,-0.937012,-0.0986328
1541872414155727,-0.373535,-0.930176,-0.097168
1541872414177762,-0.387695,-0.922363,-0.0991211
1541872414198818,-0.408203,-0.916504,-0.10498
1541872414215797,-0.436035,-0.90918,-0.100586
1541872414237795,-0.440918,-0.902344,-0.090332
1541872414258867,-0.462891,-0.891602,-0.0893555
1541872414275846,-0.482422,-0.886719,-0.0996094
1541872414297861,-0.478027,-0.889648,-0.0922852
1541872414318882,-0.500977,-0.881348,-0.101074
1541872414335896,-0.522461,-0.875,-0.090332
1541872414357903,-0.549805,-0.861328,-0.0913086
1541872414378931,-0.553223,-0.871094,-0.0976563
1541872414395944,-0.569336,-0.856934,-0.0849609
1541872414417944,-0.585449,-0.841309,-0.09375
1541872414438980,-0.592773,-0.828613,-0.0786133
1541872414455995,-0.605957,-0.805664,-0.0766602
1541872414477993,-0.604004,-0.805176,-0.0737305
1541872414507071,-0.615723,-0.804688,-0.0844727
1541872414515044,-0.636719,-0.795898,-0.0678711
1541872414538043,-0.640625,-0.780273,-0.0629883
1541872414559079,-0.651367,-0.775391,-0.0571289
1541872414576129,-0.652344,-0.77002,-0.0737305
1541872414598092,-0.654297,-0.776855,-0.0712891
1541872414619129,-0.658691,-0.766113,-0.0732422
1541872414636134,-0.664063,-0.765625,-0.0595703
1541872414658177,-0.671387,-0.753906,-0.0512695
1541872414679215,-0.669922,-0.755371,-0.0444336
1541872414695174,-0.673828,-0.754395,-0.0444336
1541872414718211,-0.674316,-0.754883,-0.0473633
1541872414739263,-0.679688,-0.749023,-0.0454102
1541872414755242,-0.694336,-0.723633,-0.0336914
1541872414778240,-0.70752,-0.709961,-0.0244141
1541872414799312,-0.71875,-0.716309,-0.0332031
1541872414815290,-0.713379,-0.727051,-0.0126953
1541872414838304,-0.727051,-0.716309,-0.00439453
1541872414860318,-0.740723,-0.712402,-0.00292969
1541872414875340,-0.739746,-0.717285,-0.0141602
1541872414898359,-0.757813,-0.711914,-0.00732422
1541872414920374,-0.746582,-0.701172,-0.0175781
1541872414935425,-0.759277,-0.689453,-0.0131836
1541872414958409,-0.761719,-0.686523,-0.0234375
1541872414980423,-0.771484,-0.680664,-0.0253906
1541872415001443,-0.776855,-0.672852,-0.0327148
1541872415018457,-0.79248,-0.66748,-0.0351563
1541872415040456,-0.783691,-0.659668,-0.0356445
1541872415061493,-0.785156,-0.650879,-0.0302734
1541872415078507,-0.792969,-0.631348,-0.0292969
1541872415100505,-0.775879,-0.640625,-0.0302734
1541872415121543,-0.783203,-0.638672,-0.0249023
1541872415138592,-0.79248,-0.63623,-0.034668
1541872415160554,-0.79248,-0.633301,-0.0356445
1541872415174586,-0.799316,-0.633301,-0.0273438
1541872415198605,-0.784668,-0.638672,-0.0185547
1541872415220612,-0.781738,-0.641602,-0.0200195
1541872415225627,-0.777344,-0.637207,-0.0268555
1541872415242643,-0.779785,-0.641602,-0.0297852
1541872415263659,-0.790527,-0.63623,-0.0161133
1541872415285678,-0.800293,-0.632813,-0.0161133
1541872415302692,-0.813965,-0.628906,-0.00439453
1541872415323709,-0.837402,-0.60791,-0.00146484
1541872415345765,-0.833984,-0.608398,-0.0136719
1541872415362724,-0.84375,-0.614746,-0.0214844
1541872415383760,-0.838379,-0.609863,-0.0219727
1541872415405778,-0.846191,-0.593262,-0.0136719
1541872415422790,-0.847168,-0.586426,-0.0205078
1541872415443808,-0.835938,-0.596191,-0.0151367
1541872415465827,-0.835938,-0.59375,-0.0151367
1541872415482840,-0.842285,-0.605957,-0.0117188
1541872415503857,-0.827148,-0.581055,-0.00683594
1541872415525910,-0.839355,-0.59082,-0.0112305
1541872415542889,-0.846191,-0.572754,-0.00292969
1541872415563907,-0.833496,-0.585938,0.00341797
1541872415585925,-0.836914,-0.585449,-0.000488281
1541872415602975,-0.840332,-0.587891,-0.00341797
1541872415623993,-0.841797,-0.577637,-0.000488281
1541872415646010,-0.84375,-0.583496,-0.00146484
1541872415662989,-0.839355,-0.591309,0.0078125
1541872415684005,-0.842285,-0.583496,0.0161133
1541872415706024,-0.849121,-0.579102,0.00292969
1541872415723019,-0.844727,-0.56543,0.00488281
1541872415744050,-0.851074,-0.579102,0.00683594
1541872415766109,-0.856445,-0.575195,0.0151367
1541872415783091,-0.862305,-0.571777,0.0146484
1541872415804105,-0.85791,-0.566406,0.0205078
1541872415826123,-0.864746,-0.554199,0.0136719
1541872415844137,-0.850098,-0.554199,0.0273438
1541872415863154,-0.856934,-0.554199,0.027832
1541872415886173,-0.85791,-0.556152,0.027832
1541872415904168,-0.859375,-0.553711,0.0380859
1541872415924203,-0.853027,-0.551758,0.0380859
1541872415946222,-0.851563,-0.547363,0.034668
1541872415964238,-0.852539,-0.565918,0.0375977
1541872415983252,-0.850098,-0.556641,0.0400391
1541872416006271,-0.854492,-0.553711,0.0410156
1541872416024280,-0.856934,-0.55957,0.0405273
1541872416043341,-0.853516,-0.556152,0.0517578
1541872416066320,-0.867188,-0.554688,0.0488281
1541872416084331,-0.858398,-0.549805,0.0507813
1541872416103351,-0.863281,-0.536621,0.050293
1541872416126406,-0.866211,-0.536133,0.0498047
1541872416144382,-0.86377,-0.534668,0.0517578
1541872416163384,-0.859375,-0.532715,0.0571289
1541872416186455,-0.864746,-0.52832,0.0664063
1541872416204434,-0.868164,-0.537109,0.0634766
1541872416223450,-0.866211,-0.54248,0.0629883
1541872416246450,-0.867676,-0.539551,0.0600586
1541872416264485,-0.861328,-0.531738,0.065918
1541872416283500,-0.858398,-0.52002,0.0717773
1541872416306520,-0.847168,-0.516602,0.0766602
1541872416324533,-0.844238,-0.518066,0.0771484
1541872416343545,-0.835449,-0.524414,0.0830078
1541872416361559,-0.82666,-0.536133,0.0859375
1541872416384579,-0.833496,-0.541016,0.0869141
1541872416405599,-0.84082,-0.543945,0.0893555
1541872416421594,-0.855469,-0.536621,0.0874023
1541872416444623,-0.868164,-0.535645,0.0693359
1541872416465647,-0.875488,-0.526855,0.0664063
1541872416481645,-0.865723,-0.529785,0.0703125
1541872416503680,-0.865234,-0.523438,0.0654297
1541872416525680,-0.864746,-0.547852,0.0595703
1541872416541712,-0.866211,-0.549316,0.0625
1541872416563774,-0.853027,-0.562988,0.0595703
1541872416585750,-0.850098,-0.561523,0.0629883
1541872416605766,-0.843262,-0.558105,0.0732422
1541872416623764,-0.84668,-0.558105,0.0625
1541872416644830,-0.833984,-0.560547,0.0615234
1541872416666817,-0.813965,-0.576172,0.0498047
1541872416683816,-0.810547,-0.577148,0.0527344
1541872416704828,-0.789063,-0.611816,0.0512695
1541872416726864,-0.771973,-0.637207,0.0410156
1541872416743873,-0.770508,-0.630371,0.0473633
1541872416765888,-0.732422,-0.6875,0.0317383
1541872416779890,-0.718262,-0.69043,0.0341797
1541872416802927,-0.725586,-0.710449,0.0405273
1541872416825947,-0.705078,-0.730469,0.0307617
1541872416839948,-0.681641,-0.725586,0.0375977
1541872416862973,-0.685547,-0.742676,0.0366211
1541872416885997,-0.65918,-0.757813,0.0302734
1541872416907050,-0.599609,-0.771973,0.0395508
1541872416923044,-0.601074,-0.777344,0.0341797
1541872416946045,-0.591309,-0.816406,0.0244141
1541872416967062,-0.542969,-0.797363,0.0351563
1541872416983057,-0.550293,-0.815918,0.0195313
1541872417006112,-0.532715,-0.843262,0.0214844
1541872417027113,-0.492188,-0.880371,0.0341797
1541872417043107,-0.472656,-0.89209,0.0498047
1541872417066144,-0.445801,-0.931152,0.0439453
1541872417087162,-0.397461,-0.961426,0.0258789
1541872417103166,-0.354492,-0.964355,0.0229492
1541872417133186,-0.30127,-0.994141,0.00683594
1541872417147212,-0.27832,-0.992676,0.0166016
1541872417163205,-0.263672,-0.996094,0.0268555
1541872417186240,-0.264648,-0.992676,0.0375977
1541872417207298,-0.259766,-1.01123,0.0302734
1541872417223260,-0.219238,-1.01758,0.0341797
1541872417246294,-0.183594,-1.02344,0.0249023
1541872417267303,-0.139648,-1.03369,0.0117188
1541872417283305,-0.124512,-1.00586,0.0112305
1541872417306343,-0.0698242,-1.021,0.0273438
1541872417327360,-0.0644531,-1.00977,0.0292969
1541872417343354,-0.0400391,-1.03564,0.0185547
1541872417366388,-0.00634766,-1.02246,0.03125
1541872417387424,0.0136719,-1.04248,0.00927734
1541872417403413,0.0258789,-1.04395,0.0234375
1541872417426433,0.0385742,-1.02295,0.0273438
1541872417447450,0.0737305,-1.00244,0.0244141
1541872417463467,0.115723,-1.04004,0.0268555
1541872417485490,0.15332,-1.02002,0.0209961
1541872417507505,0.189941,-1.01611,0.0244141
1541872417522517,0.220703,-1.01074,0.0253906
1541872417545582,0.220703,-1.02197,0.0317383
1541872417566557,0.227051,-1.00342,0.0473633
1541872417582554,0.234375,-0.994629,0.0361328
1541872417605580,0.249023,-1,0.0356445
1541872417626607,0.286133,-0.961426,0.0507813
1541872417642610,0.367188,-0.896973,0.0131836
1541872417665628,0.454102,-0.910645,0.0214844
1541872417686647,0.487793,-0.902344,0.0361328
1541872417702649,0.515625,-0.869141,0.0507813
1541872417725679,0.54248,-0.864258,0.0571289
1541872417748708,0.55957,-0.879395,0.0600586
1541872417762715,0.578613,-0.856445,0.0424805
1541872417785720,0.592773,-0.844238,0.0585938
1541872417808757,0.576172,-0.877441,0.0449219
1541872417822759,0.586914,-0.875977,0.043457
1541872417845770,0.595703,-0.87207,0.043457
1541872417868808,0.594727,-0.841797,0.0551758
1541872417889823,0.61084,-0.829102,0.0585938
1541872417905816,0.642578,-0.798828,0.0522461
1541872417928856,0.644531,-0.791504,0.0473633
1541872417949873,0.672363,-0.77002,0.0483398
1541872417965879,0.682129,-0.774414,0.0498047
1541872417988905,0.672852,-0.755859,0.0664063
1541872418009922,0.694336,-0.716309,0.0444336
1541872418025927,0.695801,-0.717773,0.0507813
1541872418048951,0.707031,-0.728027,0.0561523
1541872418069972,0.713379,-0.737793,0.0546875
1541872418085969,0.71875,-0.72998,0.0498047
1541872418108998,0.722656,-0.714355,0.059082
1541872418130033,0.72998,-0.705078,0.0678711
1541872418146016,0.743164,-0.695313,0.0664063
1541872418168053,0.740234,-0.691895,0.078125
1541872418190062,0.763672,-0.651855,0.0761719
1541872418207078,0.784668,-0.630859,0.0766602
1541872418228102,0.793457,-0.616211,0.0849609
1541872418249119,0.783691,-0.609375,0.0947266
1541872418266134,0.785156,-0.602539,0.109375
1541872418288149,0.78418,-0.583496,0.111816
1541872418309204,0.801758,-0.567871,0.120117
1541872418326166,0.793457,-0.564453,0.144531
1541872418348192,0.802246,-0.551758,0.097168
1541872418369219,0.82666,-0.561035,0.106934
1541872418386249,0.817871,-0.563477,0.113281
1541872418408231,0.816895,-0.557129,0.126465
1541872418429268,0.819824,-0.570801,0.132324
1541872418445263,0.837402,-0.582031,0.133789
1541872418468290,0.842773,-0.588379,0.123535
1541872418489353,0.847656,-0.59668,0.132324
1541872418505312,0.829102,-0.594238,0.126465
1541872418528340,0.830078,-0.586426,0.135742
1541872418549350,0.819336,-0.560547,0.142578
1541872418565361,0.836426,-0.525879,0.14502
1541872418588390,0.848633,-0.532227,0.144531
1541872418611418,0.852539,-0.526855,0.147461
1541872418625430,0.860352,-0.522461,0.15332
1541872418648431,0.862793,-0.498047,0.155762
1541872418671468,0.883789,-0.480469,0.155762
1541872418685479,0.880859,-0.460449,0.160645
1541872418708489,0.866699,-0.456543,0.16748
1541872418731551,0.868164,-0.439941,0.166016
1541872418752534,0.873047,-0.418457,0.165039
1541872418768529,0.881348,-0.422363,0.165039
1541872418791600,0.883789,-0.416992,0.175781
1541872418805573,0.890137,-0.412109,0.163574
1541872418828587,0.873047,-0.412109,0.163574
1541872418851597,0.861328,-0.376953,0.165527
1541872418865610,0.865723,-0.347656,0.158691
1541872418888646,0.875977,-0.284668,0.145508
1541872418910707,0.876953,-0.410156,0.13623
1541872418931683,0.856934,-0.439453,0.127441
1541872418948695,0.865723,-0.522461,0.126465
1541872418970749,0.857422,-0.59375,0.0893555
1541872418991731,0.837402,-0.65332,0.0732422
1541872419008745,0.818848,-0.67627,0.0654297
1541872419030745,0.80127,-0.721191,0.0761719
1541872419051817,0.758301,-0.750977,0.0981445
1541872419068795,0.739258,-0.766113,0.0771484
1541872419090794,0.739746,-0.770996,0.0703125
1541872419111830,0.747559,-0.736328,0.0625
1541872419128847,0.728516,-0.731934,0.0649414
1541872419150861,0.711426,-0.750488,0.0761719
1541872419171915,0.679199,-0.779785,0.078125
1541872419188894,0.65625,-0.810547,0.0649414
1541872419210903,0.637207,-0.80127,0.0732422
1541872419231929,0.619141,-0.80957,0.0541992
1541872419248980,0.589844,-0.862305,0.0522461
1541872419270941,0.563965,-0.87207,0.0561523
1541872419291978,0.54248,-0.877441,0.0541992
1541872419308992,0.513672,-0.885742,0.0668945
1541872419330991,0.479004,-0.875977,0.0556641
1541872419352064,0.458984,-0.900879,0.0483398
1541872419368037,0.431152,-0.927734,0.0429688
1541872419391041,0.398926,-0.925781,0.0517578
1541872419412077,0.375977,-0.943359,0.0483398
1541872419428091,0.344727,-0.947754,0.0488281
1541872419451099,0.325684,-0.962402,0.0566406
1541872419472127,0.291016,-0.982422,0.046875
1541872419488121,0.247559,-0.997559,0.0483398
1541872419511140,0.21875,-1.00537,0.0463867
1541872419532176,0.19873,-1.00781,0.0424805
1541872419548189,0.164063,-1.01758,0.0410156
1541872419571204,0.135742,-1.01611,0.0458984
1541872419593210,0.101563,-1.02344,0.0336914
1541872419608256,0.0649414,-1.0166,0.0375977
1541872419615242,0.043457,-1.01172,0.0244141
1541872419636263,0.0102539,-1.01123,0.0214844
1541872419659278,-0.0317383,-1.01074,0.0151367
1541872419675279,-0.0610352,-1.01758,0.0214844
1541872419696348,-0.09375,-1.0083,0.0224609
1541872419719314,-0.103516,-0.991699,0.0141602
1541872419735327,-0.128418,-0.978516,0.0078125
1541872419756398,-0.142578,-0.998535,-0.000488281
1541872419779363,-0.192871,-1.01172,0.00976563
1541872419795373,-0.208496,-0.992188,0.0136719
1541872419816410,-0.217285,-0.974121,0.00195313
1541872419839429,-0.251953,-0.974609,-0.00439453
1541872419857428,-0.26416,-0.966797,-0.00292969
1541872419876459,-0.271484,-0.97168,-0.0117188
1541872419906485,-0.296875,-0.968262,-0.00537109
1541872419917488,-0.321289,-0.952148,0.000976563
1541872419936509,-0.345703,-0.945313,-0.00244141
1541872419959527,-0.338379,-0.949219,-0.015625
1541872419975523,-0.359375,-0.952637,-0.0107422
1541872419996596,-0.364258,-0.936523,-0.0151367
1541872420019575,-0.40625,-0.940918,0.000488281
1541872420035590,-0.421387,-0.9375,0.0078125
1541872420056608,-0.447754,-0.928223,0.00439453
1541872420078626,-0.445801,-0.909668,-0.00537109
1541872420093640,-0.456543,-0.910645,-0.00488281
1541872420116658,-0.466797,-0.919922,-0.00439453
1541872420138676,-0.476074,-0.904297,-0.0078125
1541872420153688,-0.502441,-0.885254,0.00146484
1541872420176707,-0.51416,-0.875977,0.00341797
1541872420198725,-0.519043,-0.882813,-0.00390625
1541872420215757,-0.516113,-0.879395,-0.0151367
1541872420236757,-0.521484,-0.86377,-0.0136719
1541872420258775,-0.522949,-0.871582,-0.0126953
1541872420275807,-0.535156,-0.850098,-0.00439453
1541872420296807,-0.555664,-0.851074,-0.00976563
1541872420318825,-0.568848,-0.842773,-0.00244141
1541872420335839,-0.577148,-0.849609,0.00585938
1541872420356857,-0.569824,-0.845215,0.00292969
1541872420378870,-0.564941,-0.851074,-0.00634766
1541872420395908,-0.567871,-0.84082,-0.00390625
1541872420416946,-0.588379,-0.830566,0.00292969
1541872420438924,-0.589844,-0.816406,-0.000976563
1541872420455937,-0.609375,-0.794434,-0.000488281
1541872420476955,-0.604004,-0.799316,0.00146484
1541872420498973,-0.605469,-0.806152,0.00292969
1541872420516979,-0.615723,-0.812988,0.00244141
1541872420537004,-0.608887,-0.819336,0.00244141
1541872420555019,-0.633301,-0.806152,0.00732422
1541872420577019,-0.641602,-0.812988,0.00341797
1541872420597054,-0.638672,-0.806152,0.00634766
1541872420615049,-0.64209,-0.806152,-0.00146484
1541872420637068,-0.64209,-0.806152,0.00634766
1541872420657099,-0.64209,-0.805176,0.0112305
1541872420681104,-0.650391,-0.788574,0.0136719
1541872420697136,-0.63623,-0.78418,0.00585938
1541872420717136,-0.643066,-0.794434,-0.00195313
1541872420734167,-0.650879,-0.791992,0.00537109
1541872420757186,-0.657227,-0.78125,0.00830078
1541872420776202,-0.662598,-0.778809,0.00976563
1541872420794251,-0.661621,-0.769531,0.00439453
1541872420817238,-0.671387,-0.768555,0.00732422
1541872420836251,-0.679688,-0.773438,0.0112305
1541872420854259,-0.668457,-0.773438,0.00146484
1541872420877284,-0.678223,-0.766602,0.00732422
1541872420896301,-0.663574,-0.77832,0.00292969
1541872420914296,-0.664063,-0.771484,0
1541872420936334,-0.670898,-0.774902,-0.00732422
1541872420957351,-0.690918,-0.754883,0.00488281
1541872420974346,-0.687988,-0.756836,0.00244141
1541872420997365,-0.700684,-0.756348,-0.00341797
1541872421016437,-0.695313,-0.760254,0.000488281
1541872421033396,-0.696289,-0.756348,-0.000488281
1541872421056429,-0.697754,-0.752441,0.00244141
1541872421077450,-0.695801,-0.753418,-0.00390625
1541872421093473,-0.703125,-0.755371,0.00244141
1541872421116482,-0.695313,-0.753418,0.00195313
1541872421137499,-0.699707,-0.749023,0.00732422
1541872421153493,-0.697754,-0.75,0.00390625
1541872421176549,-0.698242,-0.742188,0.0078125
1541872421197549,-0.702148,-0.72998,0.0195313
1541872421213542,-0.708984,-0.716309,0.0258789
1541872421236616,-0.706543,-0.717285,0.0141602
1541872421257598,-0.709473,-0.736328,-0.00195313
1541872421273593,-0.708008,-0.744629,-0.012207
1541872421296629,-0.709961,-0.742676,-0.0112305
1541872421317684,-0.708008,-0.744141,-0.00976563
1541872421333651,-0.712891,-0.743164,-0.0102539
1541872421356680,-0.717773,-0.745117,-0.0141602
1541872421377697,-0.728027,-0.747559,-0.00830078
1541872421393690,-0.723633,-0.738281,-0.00244141
1541872421416764,-0.724121,-0.731934,0.0107422
1541872421437746,-0.72168,-0.727539,0.00732422
1541872421453741,-0.721191,-0.725098,-0.00683594
1541872421476780,-0.714355,-0.727539,0.000488281
1541872421498777,-0.717773,-0.728516,0.00195313
1541872421513790,-0.719727,-0.71582,0.00292969
1541872421536828,-0.721191,-0.717773,0.0102539
1541872421558833,-0.724609,-0.717773,0.00244141
1541872421573839,-0.724121,-0.726074,0.00390625
1541872421596875,-0.725098,-0.725586,0
1541872421618897,-0.72998,-0.721191,0.000488281
1541872421632930,-0.728516,-0.715332,0.00244141
1541872421656919,-0.73584,-0.71875,-0.00292969
1541872421678946,-0.740723,-0.719238,-0.0117188
1541872421692938,-0.75,-0.709961,-0.000976563
1541872421715975,-0.751465,-0.702148,0.00195313
1541872421738995,-0.745605,-0.70459,0.000488281
1541872421753003,-0.756836,-0.708496,0.00683594
1541872421777010,-0.742188,-0.697754,-0.00244141
1541872421799027,-0.742676,-0.699219,0
1541872421813050,-0.753418,-0.69043,-0.00195313
1541872421836084,-0.745605,-0.700195,0.000488281
1541872421859093,-0.743652,-0.69873,-0.00390625
1541872421873095,-0.756348,-0.69043,-0.00244141
1541872421896108,-0.755859,-0.679688,0
1541872421926131,-0.756348,-0.68457,-0.00537109
1541872421933135,-0.758301,-0.689453,-0.012207
1541872421956155,-0.751465,-0.700684,-0.00976563
1541872421979193,-0.748535,-0.703125,-0.00830078
1541872422000210,-0.76123,-0.700195,0.00195313
1541872422016213,-0.765137,-0.69873,-0.00195313
1541872422039242,-0.770508,-0.697754,0.00195313
1541872422060260,-0.766602,-0.698242,-0.00146484
1541872422076253,-0.763184,-0.693359,0.00439453
1541872422099292,-0.758301,-0.688477,0.00537109
1541872422120309,-0.766113,-0.686035,0.00976563
1541872422136302,-0.765137,-0.68457,0.00146484
1541872422159341,-0.762695,-0.685059,0.00439453
1541872422180358,-0.748047,-0.689453,0.00878906
1541872422196367,-0.749023,-0.681641,0.00488281
1541872422219382,-0.763184,-0.671875,0.0107422
1541872422240391,-0.773438,-0.671875,0.0166016
1541872422256402,-0.763672,-0.675293,0.0107422
1541872422279455,-0.760254,-0.687012,-0.00488281
1541872422300459,-0.763672,-0.696777,-0.00634766
1541872422316470,-0.765137,-0.699707,-0.00976563
1541872422339497,-0.771973,-0.686523,-0.000488281
1541872422360504,-0.775879,-0.676758,0.000976563
1541872422376518,-0.775879,-0.674805,0.00634766
1541872422398581,-0.780273,-0.666504,0.00976563
1541872422419591,-0.772949,-0.655273,0.00537109
1541872422436550,-0.78125,-0.659668,0.0102539
1541872422458582,-0.778809,-0.651367,-0.00390625
1541872422481607,-0.776855,-0.653809,0.00341797
1541872422496619,-0.782227,-0.649902,0
1541872422518632,-0.793457,-0.649414,0.00830078
1541872422541648,-0.798828,-0.644043,0.00341797
1541872422556651,-0.811035,-0.645508,0.00634766
1541872422578668,-0.792969,-0.64209,0.00488281
1541872422601705,-0.80127,-0.638672,-0.000976563
1541872422615698,-0.796875,-0.650879,0.00244141
1541872422638727,-0.807617,-0.634277,0.0078125
1541872422661755,-0.804199,-0.641602,0.00146484
1541872422675748,-0.812012,-0.633789,0.0102539
1541872422698782,-0.808594,-0.643066,0.00292969
1541872422721804,-0.806641,-0.64209,0.0078125
1541872422735797,-0.807617,-0.640137,0.00732422
1541872422758825,-0.807129,-0.634766,0.0161133
1541872422781849,-0.803223,-0.616699,0.0161133
1541872422795848,-0.801758,-0.61377,0.0151367
1541872422818870,-0.803223,-0.621094,0.0126953
1541872422841899,-0.798828,-0.610352,0.00927734
1541872422855911,-0.803223,-0.617188,0.0102539
1541872422878914,-0.800781,-0.623047,0.0141602
1541872422901954,-0.806152,-0.629883,0.0102539
1541872422915967,-0.803223,-0.640137,0.0136719
1541872422938964,-0.808105,-0.638672,0.019043
1541872422962003,-0.815918,-0.638184,0.0185547
1541872422983020,-0.816406,-0.633301,0.0219727
1541872422999015,-0.819824,-0.626465,0.0180664
1541872423022087,-0.811523,-0.617188,0.019043
1541872423042105,-0.80957,-0.620605,0.0141602
1541872423059078,-0.803711,-0.620605,0.0161133
1541872423082093,-0.806641,-0.619141,0.0112305
1541872423103100,-0.806641,-0.621094,0.0112305
1541872423119132,-0.807617,-0.618652,0.0107422
1541872423142147,-0.814941,-0.610352,0.00537109
1541872423163165,-0.816895,-0.59375,0.0102539
1541872423179182,-0.816406,-0.564941,0.0102539
1541872423201191,-0.810059,-0.558105,0.0219727
1541872423222213,-0.795898,-0.581055,0.0522461
1541872423238215,-0.768555,-0.589355,0.00585938
1541872423261240,-0.738281,-0.594727,0
1541872423282266,-0.725586,-0.612305,-0.00830078
1541872423305285,-0.722168,-0.60791,0.00292969
1541872423321289,-0.716797,-0.627441,0.0170898
1541872423342315,-0.680664,-0.709473,0.0078125
1541872423358325,-0.651367,-0.765137,-0.000976563
1541872423381339,-0.630371,-0.849609,-0.00585938
1541872423404368,-0.648926,-0.769043,-0.00683594
1541872423418366,-0.668945,-0.690918,0.0253906
1541872423441377,-0.626953,-0.744629,0.0234375
1541872423464418,-0.572266,-0.838379,0.0166016
1541872423478420,-0.560059,-0.898438,0.00830078
1541872423501427,-0.568359,-0.890625,0.0429688
1541872423524468,-0.539551,-0.877441,0.0722656
1541872423545486,-0.497559,-0.864746,0.0493164
1541872423561476,-0.418945,-0.893066,0.0273438
1541872423590519,-0.357422,-0.969238,0.012207
1541872423605533,-0.36377,-0.987793,0.0454102
1541872423621538,-0.358398,-0.972656,0.043457
1541872423644560,-0.260742,-0.95752,0.00878906
1541872423665576,-0.199707,-0.991211,-0.00585938
1541872423681577,-0.213379,-1.04834,0.0322266
1541872423704625,-0.265137,-1.03857,0.0742188
1541872423725643,-0.308594,-1.00488,0.0961914
1541872423741642,-0.177734,-0.969238,0.0307617
1541872423763663,-0.0620117,-0.990723,0.00341797
1541872423785662,-0.0576172,-1.03564,0.0332031
1541872423801675,-0.0947266,-1.07129,0.0463867
1541872423823748,-0.116699,-1.00098,0.0751953
1541872423844730,0.000488281,-0.959961,0.019043
1541872423861744,0.0922852,-0.998535,-0.00244141
1541872423884779,0.104492,-1.06006,0.0263672
1541872423904778,0.0532227,-1.07422,0.0703125
1541872423921794,0.0512695,-1.01514,0.0839844
1541872423943808,0.146484,-0.984375,0.0356445
1541872423964863,0.206055,-1.01807,0.0385742
1541872423981860,0.209961,-1.04053,0.0522461
1541872424003842,0.217773,-1.00195,0.0708008
1541872424009866,0.277832,-0.960449,0.059082
1541872424031884,0.352051,-0.951172,0.0449219
1541872424046896,0.379395,-1.00195,0.0424805
1541872424069899,0.354492,-0.995117,0.065918
1541872424091934,0.360352,-0.949219,0.0976563
1541872424106946,0.401855,-0.928223,0.0874023
1541872424129964,0.449219,-0.922852,0.0742188
1541872424151982,0.458984,-0.959473,0.0751953
1541872424166998,0.462891,-0.938965,0.0834961
1541872424190005,0.47168,-0.905273,0.0957031
1541872424212032,0.505859,-0.867188,0.0766602
1541872424227036,0.547363,-0.849609,0.0717773
1541872424249063,0.546387,-0.873535,0.0805664
1541872424272081,0.557129,-0.878418,0.103516
1541872424287085,0.545898,-0.851563,0.12207
1541872424309112,0.57666,-0.796387,0.100586
1541872424332131,0.622559,-0.802246,0.0849609
1541872424347144,0.651855,-0.819336,0.0830078
1541872424369162,0.643066,-0.830566,0.0913086
1541872424392180,0.642578,-0.796875,0.0957031
1541872424407176,0.655273,-0.767578,0.0869141
1541872424429246,0.67041,-0.762207,0.0874023
1541872424452230,0.681641,-0.763672,0.0991211
1541872424467238,0.6875,-0.748047,0.10498
1541872424489262,0.699707,-0.727539,0.097168
1541872424512280,0.710938,-0.723145,0.0961914
1541872424527292,0.715332,-0.697266,0.097168
1541872424549312,0.74707,-0.682129,0.0947266
1541872424567315,0.75293,-0.663574,0.104492
1541872424588331,0.753418,-0.65625,0.11377
1541872424609359,0.767578,-0.641602,0.117676
1541872424627356,0.775391,-0.625,0.114258
1541872424647392,0.78125,-0.616699,0.12207
1541872424669411,0.796387,-0.621094,0.111816
1541872424687415,0.784668,-0.617676,0.136719
1541872424707476,0.80127,-0.60791,0.102539
1541872424729459,0.81543,-0.625977,0.129883
1541872424747465,0.799316,-0.612305,0.141113
1541872424767492,0.816895,-0.598145,0.143555
1541872424789492,0.817871,-0.567871,0.137695
1541872424807506,0.83252,-0.549316,0.130859
1541872424827582,0.827637,-0.507324,0.120605
1541872424849559,0.83252,-0.51416,0.132813
1541872424867573,0.831055,-0.48584,0.133301
1541872424887580,0.829102,-0.487793,0.14209
1541872424909607,0.841797,-0.500977,0.125977
1541872424927622,0.831055,-0.550293,0.118652
1541872424948639,0.839355,-0.537109,0.105469
1541872424977659,0.835449,-0.539551,0.0996094
1541872424994671,0.827148,-0.561523,0.0976563
1541872425011691,0.823242,-0.559082,0.0908203
1541872425029706,0.819824,-0.554199,0.103027
1541872425047721,0.814941,-0.595703,0.0849609
1541872425068737,0.814453,-0.588379,0.0664063
1541872425089756,0.809082,-0.603516,0.0688477
1541872425107763,0.789063,-0.651367,0.0683594
1541872425128789,0.773926,-0.674316,0.0913086
1541872425149806,0.761719,-0.70752,0.0986328
1541872425167820,0.753418,-0.717773,0.09375
1541872425188837,0.74707,-0.739746,0.0839844
1541872425209854,0.731445,-0.740723,0.0722656
1541872425227870,0.705566,-0.791504,0.0610352
1541872425248870,0.682129,-0.812988,0.0644531
1541872425270888,0.656738,-0.826172,0.0639648
1541872425287914,0.634766,-0.845215,0.0576172
1541872425309919,0.595703,-0.86084,0.0444336
1541872425329954,0.584473,-0.878418,0.0551758
1541872425347969,0.550781,-0.869629,0.050293
1541872425369967,0.529785,-0.88916,0.0512695
1541872425390006,0.504395,-0.90625,0.0703125
1541872425408022,0.48584,-0.912598,0.0493164
1541872425430017,0.462891,-0.912109,0.0380859
1541872425450088,0.424316,-0.946777,0.0263672
1541872425467066,0.381348,-0.959961,0.0405273
1541872425489075,0.351563,-0.977539,0.0351563
1541872425510137,0.321289,-0.968262,0.0219727
1541872425527112,0.274902,-0.992676,0.0239258
1541872425549118,0.23877,-0.996582,0.027832
1541872425570151,0.187012,-0.993164,0.0380859
1541872425587165,0.158691,-1.00977,0.0371094
1541872425609166,0.120605,-1.01611,0.0336914
1541872425630236,0.0878906,-1.00195,0.0429688
1541872425647215,0.0786133,-1.01172,0.0205078
1541872425669224,0.0341797,-1.00879,0.0283203
1541872425690285,-0.0200195,-1.00684,0.0239258
1541872425707264,-0.0297852,-1,0.0263672
1541872425729263,-0.0483398,-0.996094,0.012207
1541872425750299,-0.0825195,-0.966797,0.0297852
1541872425767306,-0.101563,-0.981445,0.0239258
1541872425789313,-0.136719,-1.00391,0.0322266
1541872425810384,-0.168945,-0.979492,0.0361328
1541872425826362,-0.169434,-0.987305,0.0341797
1541872425849363,-0.194336,-0.980469,0.0273438
1541872425870399,-0.242188,-0.971191,0.0141602
1541872425886412,-0.256348,-0.980957,0.0253906
1541872425909430,-0.260254,-0.995605,0.00488281
1541872425937454,-0.299805,-0.98584,0.0219727
1541872425946461,-0.33252,-0.972656,0.0322266
1541872425969480,-0.352539,-0.959961,0.0166016
1541872425990499,-0.375977,-0.958496,0.0224609
1541872426006511,-0.391602,-0.942871,0.0205078
1541872426029511,-0.409668,-0.927734,0.0136719
1541872426050547,-0.437988,-0.925293,0.0166016
1541872426074567,-0.472168,-0.910645,0.0107422
1541872426089579,-0.493164,-0.884766,0.00439453
1541872426110633,-0.504395,-0.873047,0.019043
1541872426126610,-0.512695,-0.860352,0.0410156
1541872426149628,-0.515137,-0.867188,0.050293
1541872426170681,-0.519531,-0.870117,0.0371094
1541872426186657,-0.517578,-0.86377,0.0219727
1541872426209678,-0.52832,-0.854004,0.0175781
1541872426232697,-0.539063,-0.855469,0.0219727
1541872426246707,-0.547852,-0.856445,0.0371094
1541872426269727,-0.57373,-0.861816,0.03125
1541872426291728,-0.592285,-0.838379,0.0297852
1541872426306740,-0.610352,-0.817871,0.0351563
1541872426329776,-0.607422,-0.8125,0.0336914
1541872426351791,-0.60791,-0.806641,0.0454102
1541872426380819,-0.613281,-0.802246,0.0546875
1541872426389827,-0.621094,-0.795898,0.0556641
1541872426411830,-0.633301,-0.79541,0.0537109
1541872426432861,-0.625,-0.786621,0.0463867
1541872426449871,-0.621582,-0.774414,0.0517578
1541872426471875,-0.625488,-0.779297,0.0507813
1541872426492912,-0.638672,-0.776367,0.0512695
1541872426508925,-0.652344,-0.780762,0.0458984
1541872426531944,-0.664551,-0.78125,0.0498047
1541872426552961,-0.651855,-0.766113,0.0537109
1541872426568974,-0.686035,-0.750977,0.0512695
1541872426591984,-0.697266,-0.751465,0.0522461
1541872426613047,-0.70752,-0.741211,0.0600586
1541872426629024,-0.708496,-0.734375,0.0561523
1541872426652043,-0.708008,-0.735352,0.0449219
1541872426666038,-0.710449,-0.729492,0.050293
1541872426689108,-0.712891,-0.724609,0.0473633
1541872426712109,-0.707031,-0.727539,0.0483398
1541872426733145,-0.716797,-0.730957,0.0449219
1541872426749113,-0.716797,-0.734863,0.0478516
1541872426772141,-0.715332,-0.731445,0.0429688
1541872426793195,-0.725098,-0.727051,0.0419922
1541872426809163,-0.742188,-0.724121,0.0546875
1541872426832191,-0.734863,-0.722168,0.0541992
1541872426853209,-0.741211,-0.709961,0.0581055
1541872426869208,-0.743164,-0.714844,0.0556641
1541872426892240,-0.737305,-0.704102,0.0566406
1541872426913294,-0.742676,-0.699219,0.0610352
1541872426929252,-0.751953,-0.689453,0.0639648
1541872426952289,-0.759766,-0.680664,0.0693359
1541872426973307,-0.753906,-0.68457,0.0571289
1541872426989301,-0.737793,-0.681152,0.059082
1541872427012374,-0.739258,-0.688477,0.0541992
1541872427033357,-0.746094,-0.692383,0.0625
1541872427049351,-0.741211,-0.692383,0.0576172
1541872427072389,-0.762695,-0.682617,0.0537109
1541872427093406,-0.771973,-0.682617,0.050293
1541872427110420,-0.772461,-0.67627,0.0483398
1541872427132433,-0.777832,-0.660156,0.0556641
1541872427154448,-0.779297,-0.672363,0.0610352
1541872427169450,-0.783203,-0.669434,0.0576172
1541872427192485,-0.775879,-0.676758,0.0532227
1541872427214488,-0.768555,-0.676758,0.0571289
1541872427229519,-0.762695,-0.673828,0.0634766
1541872427251537,-0.764648,-0.678223,0.0615234
1541872427274543,-0.766602,-0.677246,0.0698242
1541872427289571,-0.776855,-0.668945,0.0771484
1541872427312568,-0.773926,-0.671387,0.0810547
1541872427334601,-0.772461,-0.663086,0.0839844
1541872427348610,-0.783203,-0.654785,0.0805664
1541872427371631,-0.789551,-0.644531,0.0834961
1541872427394655,-0.793457,-0.63916,0.0791016
1541872427408646,-0.793945,-0.64502,0.0859375
1541872427431666,-0.790039,-0.64502,0.0961914
1541872427454704,-0.779785,-0.635254,0.0942383
1541872427468706,-0.773438,-0.640137,0.0908203
1541872427491717,-0.773438,-0.646973,0.0859375
1541872427514753,-0.763184,-0.651855,0.0820313
1541872427528747,-0.759277,-0.657227,0.0791016
1541872427551769,-0.771484,-0.661621,0.0820313
1541872427574804,-0.760742,-0.669434,0.081543
1541872427588815,-0.774902,-0.662109,0.074707
1541872427617839,-0.78125,-0.664551,0.0834961
1541872427634852,-0.80127,-0.665527,0.0893555
1541872427655869,-0.791504,-0.652344,0.0981445
1541872427671870,-0.789063,-0.648438,0.103027
1541872427694901,-0.789063,-0.645508,0.097168
1541872427715919,-0.794434,-0.634277,0.0981445
1541872427731915,-0.785645,-0.629395,0.097168
1541872427754952,-0.78125,-0.63916,0.0976563
1541872427775968,-0.769043,-0.657227,0.0976563
1541872427791977,-0.76416,-0.663574,0.104004
1541872427815001,-0.769043,-0.663086,0.101563
1541872427836015,-0.772461,-0.666992,0.0908203
1541872427852012,-0.783203,-0.680176,0.0986328
1541872427875039,-0.791992,-0.674316,0.097168
1541872427896093,-0.793945,-0.671387,0.0922852
1541872427912072,-0.800781,-0.664063,0.101563
1541872427935107,-0.795898,-0.656738,0.109375
1541872427956108,-0.802246,-0.647461,0.112305
1541872427972131,-0.797852,-0.645508,0.101563
1541872427994149,-0.793945,-0.638672,0.113281
1541872428015166,-0.791016,-0.633789,0.110352
1541872428032180,-0.796387,-0.621094,0.102051
1541872428054192,-0.794434,-0.622559,0.108398
1541872428075216,-0.786621,-0.632813,0.103027
1541872428092230,-0.779297,-0.62793,0.0981445
1541872428114241,-0.785645,-0.634277,0.0942383
1541872428137267,-0.787109,-0.63623,0.0859375
1541872428152279,-0.784668,-0.641113,0.0883789
1541872428174294,-0.800781,-0.632324,0.0981445
1541872428197316,-0.80127,-0.641113,0.10498
1541872428212329,-0.799316,-0.640625,0.103027
1541872428234344,-0.791504,-0.637695,0.103027
1541872428257382,-0.788574,-0.64209,0.100098
1541872428271357,-0.792969,-0.63916,0.105469
1541872428294389,-0.78125,-0.631836,0.108887
1541872428317414,-0.780762,-0.633301,0.103027
1541872428331407,-0.769043,-0.63916,0.104004
1541872428354431,-0.762207,-0.635742,0.104004
1541872428377464,-0.756836,-0.635742,0.097168
1541872428398483,-0.754883,-0.62793,0.103027
1541872428414476,-0.755859,-0.634277,0.106934
1541872428420481,-0.749512,-0.641113,0.111328
1541872428442518,-0.744629,-0.648926,0.105469
1541872428464536,-0.737305,-0.660156,0.101074
1541872428479551,-0.71582,-0.682617,0.101563
1541872428502569,-0.718262,-0.673828,0.106445
1541872428524569,-0.717285,-0.689453,0.109375
1541872428539600,-0.708984,-0.702148,0.103027
1541872428562600,-0.703613,-0.716309,0.10498
1541872428580625,-0.682129,-0.738281,0.102051
1541872428601649,-0.662109,-0.759277,0.0922852
1541872428622667,-0.654785,-0.758301,0.0825195
1541872428640682,-0.63623,-0.770508,0.0820313
1541872428659697,-0.617188,-0.801758,0.09375
1541872428682716,-0.606445,-0.825684,0.097168
1541872428700730,-0.548828,-0.818848,0.0976563
1541872428719746,-0.539063,-0.852051,0.0737305
1541872428742761,-0.505371,-0.868652,0.0771484
1541872428758761,-0.50293,-0.868164,0.0849609
1541872428779779,-0.492188,-0.878418,0.0888672
1541872428802815,-0.450684,-0.905762,0.0795898
1541872428818808,-0.397461,-0.912598,0.0712891
1541872428839845,-0.375,-0.933594,0.0678711
1541872428862864,-0.381836,-0.939941,0.0839844
1541872428878860,-0.379883,-0.933105,0.078125
1541872428899931,-0.348633,-0.959473,0.0893555
1541872428922913,-0.268555,-0.971191,0.0610352
1541872428940926,-0.227051,-0.996582,0.0483398
1541872428959945,-0.22998,-1.00635,0.0664063
1541872428982963,-0.23584,-0.983887,0.0668945
1541872428998956,-0.235352,-0.991211,0.0849609
1541872429019994,-0.19873,-1.02148,0.0810547
1541872429043008,-0.15332,-1.03662,0.0678711
1541872429060026,-0.12207,-1.02979,0.0737305
1541872429080042,-0.125,-1.00537,0.0751953
1541872429102063,-0.126465,-1.02002,0.0761719
1541872429120077,-0.103027,-1.02246,0.0708008
1541872429140095,-0.0385742,-1.03564,0.0595703
1541872429162113,-0.00732422,-1.02637,0.0429688
1541872429180126,0.0146484,-1.02441,0.0620117
1541872429200124,0.0239258,-1.02197,0.0625
1541872429222157,0.0356445,-1.00635,0.0683594
1541872429240162,0.097168,-1.00781,0.0576172
1541872429260192,0.166992,-1.03076,0.0327148
1541872429284212,0.202637,-1.00977,0.0444336
1541872429300205,0.228027,-1.00586,0.0517578
1541872429320241,0.216797,-1.01172,0.0541992
1541872429342241,0.201172,-1.04102,0.0512695
1541872429360255,0.199219,-1.06641,0.0532227
1541872429380291,0.200195,-1.05566,0.0551758
1541872429402309,0.215332,-1.00195,0.0561523
1541872429420315,0.256348,-0.986816,0.0458984
1541872429440376,0.285156,-0.966797,0.0561523
1541872429462358,0.305176,-0.979492,0.0668945
1541872429480353,0.321777,-0.978027,0.0698242
1541872429500390,0.34082,-0.964844,0.0595703
1541872429522407,0.348145,-0.950684,0.0605469
1541872429546407,0.356445,-0.947266,0.0678711
1541872429561424,0.371582,-0.94873,0.0600586
1541872429582457,0.38623,-0.938477,0.0722656
1541872429600453,0.413086,-0.928711,0.0561523
1541872429620489,0.424805,-0.933105,0.0561523
1541872429642506,0.428223,-0.927246,0.0639648
1541872429660502,0.433594,-0.914551,0.0703125
1541872429681519,0.458984,-0.906738,0.0595703
1541872429702556,0.491699,-0.89209,0.0556641
1541872429720552,0.494141,-0.879395,0.0556641
1541872429741569,0.500977,-0.884277,0.0664063
1541872429762644,0.489258,-0.893555,0.0756836
1541872429780600,0.499512,-0.884766,0.0703125
1541872429801636,0.521973,-0.87207,0.0556641
1541872429823693,0.535645,-0.86377,0.0600586
1541872429840673,0.540039,-0.866211,0.0644531
1541872429860685,0.555176,-0.847168,0.0678711
1541872429883706,0.564453,-0.847168,0.0668945
1541872429899709,0.574219,-0.840332,0.0727539
1541872429922739,0.580078,-0.841309,0.0673828
1541872429936745,0.581055,-0.832031,0.0727539
1541872429959757,0.581543,-0.832031,0.0717773
1541872429988783,0.598633,-0.815918,0.0639648
1541872429996798,0.594238,-0.822266,0.0732422
1541872430019817,0.592285,-0.834473,0.0712891
1541872430041836,0.596191,-0.830566,0.0761719
1541872430056848,0.608887,-0.785156,0.0668945
1541872430079867,0.623535,-0.804688,0.0683594
1541872430101885,0.621582,-0.826172,0.0668945
1541872430117889,0.62207,-0.813965,0.0727539
1541872430139917,0.624512,-0.794922,0.0727539
1541872430161972,0.624512,-0.793457,0.0771484
1541872430176947,0.627441,-0.793457,0.0810547
1541872430199966,0.63916,-0.775879,0.0703125
1541872430221980,0.63623,-0.768066,0.078125
1541872430243002,0.644043,-0.747559,0.0976563
1541872430266056,0.658691,-0.735352,0.0913086
1541872430282015,0.669434,-0.722168,0.0869141
1541872430303051,0.69043,-0.697266,0.0830078
1541872430320065,0.709961,-0.695801,0.0795898
1541872430342064,0.722168,-0.670898,0.0859375
1541872430363101,0.714844,-0.687988,0.0913086
1541872430380132,0.717285,-0.704102,0.100586
1541872430402113,0.729004,-0.703613,0.105469
1541872430423132,0.727539,-0.689453,0.0981445
1541872430440199,0.736816,-0.67334,0.100098
1541872430462162,0.743164,-0.672363,0.101563
1541872430483200,0.746582,-0.664063,0.109863
1541872430500213,0.758301,-0.637207,0.112305
1541872430522213,0.768066,-0.636719,0.12207
1541872430543248,0.773926,-0.630371,0.122559
1541872430560288,0.788086,-0.603027,0.110352
1541872430582261,0.786133,-0.619141,0.124023
1541872430603299,0.793457,-0.629883,0.124023
1541872430620310,0.790527,-0.629395,0.131836
1541872430642321,0.791992,-0.62793,0.121094
1541872430671348,0.802246,-0.621094,0.118652
1541872430679342,0.80127,-0.590332,0.12793
1541872430702380,0.803223,-0.59082,0.106934
1541872430723433,0.803223,-0.600586,0.122559
1541872430739412,0.805664,-0.59082,0.115723
1541872430762429,0.806152,-0.598633,0.120117
1541872430783442,0.811523,-0.573242,0.129395
1541872430807463,0.836914,-0.51416,0.0932617
1541872430822479,0.84375,-0.472168,0.0966797
1541872430843496,0.833008,-0.484863,0.0976563
1541872430859509,0.827148,-0.533691,0.125
1541872430882511,0.835938,-0.526367,0.108398
1541872430904542,0.85498,-0.475586,0.0966797
1541872430919551,0.843262,-0.487305,0.108887
1541872430942561,0.844727,-0.542969,0.119141
1541872430964577,0.831055,-0.592285,0.121094
1541872430979590,0.835938,-0.597168,0.114258
1541872431002627,0.84375,-0.558105,0.0986328
1541872431024628,0.849609,-0.549316,0.0966797
1541872431039637,0.846191,-0.555664,0.0991211
1541872431062677,0.836426,-0.536133,0.111328
1541872431084686,0.837402,-0.545898,0.125
1541872431099707,0.846191,-0.519531,0.10791
1541872431122727,0.852051,-0.504395,0.113281
1541872431144727,0.846191,-0.504883,0.111816
1541872431159744,0.846191,-0.51123,0.118652
1541872431182776,0.849609,-0.530762,0.114746
1541872431204774,0.851074,-0.537598,0.115723
1541872431219787,0.852051,-0.544434,0.119141
1541872431242825,0.855469,-0.540039,0.118652
1541872431264825,0.855957,-0.525879,0.114258
1541872431278854,0.855957,-0.513184,0.107422
1541872431302875,0.852051,-0.525391,0.101563
1541872431324882,0.849609,-0.523926,0.111328
1541872431338906,0.856934,-0.509277,0.10791
1541872431362924,0.858398,-0.513672,0.108398
1541872431384926,0.855957,-0.516602,0.102051
1541872431405960,0.858398,-0.519531,0.0976563
1541872431422971,0.852051,-0.513672,0.0976563
1541872431444974,0.849121,-0.499512,0.100098
1541872431466008,0.855957,-0.486816,0.10791
1541872431482059,0.863281,-0.45459,0.108398
1541872431505041,0.856934,-0.452148,0.09375
1541872431526095,0.84082,-0.493652,0.0917969
1541872431542072,0.830566,-0.495117,0.0786133
1541872431565091,0.833496,-0.530273,0.0786133
1541872431586109,0.836426,-0.558594,0.0966797
1541872431602120,0.818848,-0.604004,0.108887
1541872431625140,0.797363,-0.678711,0.111816
1541872431646194,0.776367,-0.720215,0.107422
1541872431662153,0.77002,-0.745605,0.105957
1541872431685190,0.762207,-0.732422,0.0834961
1541872431713248,0.757324,-0.718262,0.0522461
1541872431722220,0.744629,-0.728516,0.0463867
1541872431745240,0.729004,-0.755859,0.0541992
1541872431766291,0.712402,-0.751465,0.0566406
1541872431782265,0.691406,-0.746094,0.0512695
1541872431805288,0.674805,-0.750977,0.0546875
1541872431826306,0.654297,-0.786621,0.0541992
1541872431842302,0.632813,-0.779785,0.0449219
1541872431865338,0.619141,-0.791504,0.0336914
1541872431887338,0.608887,-0.802734,0.0449219
1541872431902349,0.581543,-0.83252,0.0444336
1541872431925388,0.569336,-0.836914,0.0351563
1541872431947387,0.554688,-0.844238,0.0366211
1541872431961417,0.535645,-0.874023,0.0307617
1541872431985437,0.525879,-0.82666,0.0317383
1541872432007436,0.515137,-0.836426,0.0415039
1541872432028473,0.49707,-0.865723,0.0180664
1541872432045483,0.458984,-0.896484,0.0205078
1541872432067486,0.439453,-0.899414,0.0317383
1541872432088522,0.444824,-0.881836,0.0263672
1541872432104535,0.45166,-0.858887,0.0151367
1541872432127554,0.441406,-0.879395,0.0273438
1541872432148572,0.413086,-0.921875,0.0307617
1541872432165570,0.384766,-0.949707,0.0410156
1541872432187585,0.378906,-0.957031,0.0341797
1541872432208657,0.375488,-0.943359,0.0180664
1541872432224635,0.369141,-0.952148,0.0317383
1541872432247655,0.337891,-0.958984,0.0317383
1541872432268672,0.307129,-0.976563,0.0283203
1541872432284679,0.305176,-0.98877,0.0126953
1541872432307703,0.290527,-0.978516,0.0161133
1541872432328720,0.273438,-0.965332,0.00927734
1541872432344724,0.28125,-0.94873,0.00244141
1541872432367769,0.293457,-0.95166,-0.00830078
1541872432388770,0.308594,-0.950684,-0.0078125
1541872432404779,0.277832,-0.969238,-0.000488281
1541872432427819,0.241211,-1.00293,0.00292969
1541872432448855,0.213867,-1.01123,0.00537109
1541872432464813,0.195313,-1.01367,-0.00292969
1541872432487852,0.186035,-1.02539,-0.0146484
1541872432508868,0.174316,-1.01465,-0.0170898
1541872432524872,0.157227,-1.02002,-0.0195313
1541872432547904,0.155762,-1.01904,-0.0185547
1541872432568953,0.140625,-1.01758,-0.00976563
1541872432584923,0.140137,-1.01855,-0.00976563
1541872432607950,0.125,-1.01123,-0.00146484
1541872432628967,0.112305,-1.02295,0.00878906
1541872432643981,0.114746,-1.00781,0.00537109
1541872432674005,0.111816,-1.00586,-0.00634766
1541872432689016,0.090332,-0.995117,0
1541872432704029,0.0791016,-0.999023,-0.00341797
1541872432728045,0.0439453,-1.00537,0.00488281
1541872432749064,0.0483398,-0.993164,0.00341797
1541872432764070,0.0727539,-0.965332,-0.0078125
1541872432788095,0.0756836,-0.977539,-0.0175781
1541872432810107,0.0405273,-1.01172,-0.00439453
1541872432815122,0.0131836,-1.02002,-0.00634766
1541872432832135,0.0307617,-1.01318,-0.012207
1541872432853152,0.0356445,-1.00146,-0.0297852
1541872432875170,0.0078125,-1.02783,-0.0229492
1541872432892168,-0.0224609,-1.06201,-0.0175781
