timestamp,x,y,z
1541872950161359,-0.194824,-0.735352,0.648438
1541872950186396,-0.201172,-0.745605,0.658203
1541872950206397,-0.199219,-0.746582,0.656738
1541872950221409,-0.206543,-0.754883,0.652344
1541872950245429,-0.208984,-0.758301,0.642578
1541872950266460,-0.200684,-0.760254,0.632324
1541872950323503,-0.194336,-0.762207,0.644531
1541872950324495,-0.195313,-0.756836,0.633789
1541872950325505,-0.199219,-0.750977,0.647461
1541872950338517,-0.202637,-0.750977,0.646484
1541872950356535,-0.202637,-0.752441,0.651855
1541872950379558,-0.199707,-0.754395,0.650391
1541872950398569,-0.193359,-0.755859,0.657715
1541872950433640,-0.194824,-0.752441,0.65625
1541872950439608,-0.20166,-0.758301,0.65625
1541872950454620,-0.204102,-0.755859,0.650391
1541872950485641,-0.202148,-0.746582,0.649902
1541872950491651,-0.189453,-0.752441,0.645508
1541872950513669,-0.187988,-0.745605,0.645996
1541872950536687,-0.191406,-0.763672,0.643555
1541872950551701,-0.196777,-0.751465,0.640137
1541872950573718,-0.187012,-0.760254,0.64209
1541872950596738,-0.202148,-0.763184,0.651367
1541872950611750,-0.194336,-0.753906,0.65332
1541872950633803,-0.193848,-0.757813,0.648438
1541872950656786,-0.189941,-0.757813,0.657715
1541872950671795,-0.19043,-0.749023,0.650391
1541872950693817,-0.190918,-0.756836,0.645508
1541872950716831,-0.1875,-0.76416,0.647461
1541872950731848,-0.185547,-0.768555,0.645996
1541872950753867,-0.185059,-0.769531,0.646484
1541872950776885,-0.191895,-0.76709,0.657227
1541872950791894,-0.185547,-0.760742,0.649902
1541872950813916,-0.181152,-0.759277,0.654785
1541872950836919,-0.178223,-0.765625,0.65918
1541872950851957,-0.181641,-0.756836,0.653809
1541872950873965,-0.188965,-0.756836,0.652832
1541872950895984,-0.189453,-0.749512,0.649414
1541872950910995,-0.1875,-0.758301,0.649902
1541872950934051,-0.17334,-0.777832,0.650879
1541872950956034,-0.166016,-0.776855,0.647949
1541872950973047,-0.168457,-0.761719,0.649902
1541872950994064,-0.177734,-0.748047,0.63623
1541872951016082,-0.174316,-0.75,0.648438
1541872951031078,-0.168945,-0.756348,0.64502
1541872951054098,-0.154297,-0.754395,0.651367
1541872951076115,-0.154785,-0.769531,0.658691
1541872951091144,-0.156738,-0.77002,0.660156
1541872951114147,-0.166016,-0.758789,0.655762
1541872951136218,-0.164551,-0.766602,0.659668
1541872951151194,-0.15625,-0.768555,0.662109
1541872951174194,-0.138672,-0.769531,0.66748
1541872951196232,-0.140137,-0.775391,0.664551
1541872951211245,-0.141113,-0.769043,0.666016
1541872951234263,-0.147949,-0.758789,0.669434
1541872951256280,-0.147949,-0.754883,0.673828
1541872951271288,-0.139648,-0.754883,0.667969
1541872951294313,-0.132324,-0.748047,0.663086
1541872951316313,-0.133789,-0.746094,0.665039
1541872951331338,-0.128418,-0.754395,0.665039
1541872951354398,-0.133789,-0.743652,0.676758
1541872951376361,-0.125,-0.740723,0.665039
1541872951391375,-0.112305,-0.741699,0.663086
1541872951415392,-0.097168,-0.747559,0.664063
1541872951436430,-0.0932617,-0.765137,0.668457
1541872951454425,-0.101563,-0.751953,0.666504
1541872951476497,-0.118652,-0.741699,0.671875
1541872951496478,-0.112305,-0.73291,0.69043
1541872951514493,-0.0913086,-0.733887,0.691895
1541872951536549,-0.0864258,-0.731445,0.701172
1541872951556528,-0.090332,-0.719238,0.723145
1541872951574524,-0.0927734,-0.718262,0.723145
1541872951596557,-0.0922852,-0.719727,0.730469
1541872951616578,-0.0888672,-0.722168,0.72998
1541872951634593,-0.0786133,-0.708008,0.733887
1541872951656599,-0.0786133,-0.694824,0.737793
1541872951676622,-0.0791016,-0.682129,0.741211
1541872951693625,-0.0668945,-0.670898,0.750488
1541872951722660,-0.0654297,-0.661621,0.759277
1541872951736660,-0.0595703,-0.660156,0.770996
1541872951753673,-0.0458984,-0.658203,0.774902
1541872951775696,-0.0585938,-0.658691,0.786621
1541872951796721,-0.0576172,-0.651367,0.794434
1541872951813739,-0.0473633,-0.641602,0.789551
1541872951835801,-0.0239258,-0.657227,0.800781
1541872951856811,-0.0112305,-0.662109,0.803711
1541872951873790,-0.0361328,-0.638672,0.806641
1541872951895791,-0.0253906,-0.62793,0.802734
1541872951916861,-0.00390625,-0.632324,0.793457
1541872951933822,0.00683594,-0.606445,0.77832
1541872951955838,0.0112305,-0.594727,0.762207
1541872951976911,0.0244141,-0.588867,0.753418
1541872952000891,0.0322266,-0.59375,0.760254
1541872952015903,0.0410156,-0.599121,0.762207
1541872952036924,0.0444336,-0.577637,0.763672
1541872952053938,0.0395508,-0.575684,0.770508
1541872952075937,0.0419922,-0.569336,0.771973
1541872952097012,0.0532227,-0.578125,0.774902
1541872952114024,0.0551758,-0.574707,0.791504
1541872952136000,0.0522461,-0.600586,0.821777
1541872952157023,0.0366211,-0.604004,0.84668
1541872952174071,0.0576172,-0.60498,0.845215
1541872952196035,0.0727539,-0.611816,0.848145
1541872952217053,0.0751953,-0.60498,0.811523
1541872952233081,0.078125,-0.587402,0.787598
1541872952256085,0.0795898,-0.597168,0.790039
1541872952277122,0.0825195,-0.619629,0.789551
1541872952300141,0.0966797,-0.62207,0.768555
1541872952318136,0.111328,-0.632813,0.740234
1541872952339208,0.130859,-0.623047,0.71582
1541872952353185,0.136719,-0.620117,0.711914
1541872952376185,0.108398,-0.629883,0.718262
1541872952399217,0.0830078,-0.666504,0.720215
1541872952413235,0.0854492,-0.664551,0.730957
1541872952436252,0.126465,-0.687012,0.716309
1541872952458270,0.137207,-0.694336,0.727051
1541872952473266,0.10791,-0.715332,0.733398
1541872952496298,0.0859375,-0.726563,0.735352
1541872952518301,0.090332,-0.717285,0.73584
1541872952539374,0.0961914,-0.713867,0.729492
1541872952556333,0.118164,-0.742188,0.72998
1541872952578368,0.143555,-0.777344,0.742676
1541872952599387,0.149902,-0.742676,0.742676
1541872952616402,0.147461,-0.719238,0.743652
1541872952638411,0.139648,-0.668945,0.709961
1541872952659472,0.14502,-0.632324,0.68457
1541872952676468,0.131836,-0.67334,0.653809
1541872952698462,0.137207,-0.669434,0.659668
1541872952719490,0.150879,-0.692871,0.669434
1541872952736500,0.175293,-0.655762,0.658691
1541872952758501,0.200684,-0.606445,0.671875
1541872952779535,0.213867,-0.609863,0.676758
1541872952796549,0.209473,-0.635254,0.694336
1541872952818557,0.196289,-0.635742,0.739258
1541872952839585,0.172363,-0.638184,0.785156
1541872952856594,0.173828,-0.70752,0.827637
1541872952878597,0.187988,-0.817871,0.880371
1541872952899635,0.15332,-0.806641,0.835938
1541872952916648,0.133789,-0.761719,0.841797
1541872952938648,0.146484,-0.72998,0.897949
1541872952959721,0.181641,-0.745605,0.918945
1541872952976736,0.199219,-0.750488,0.872559
1541872952998698,0.214355,-0.75293,0.769531
1541872953019770,0.231934,-0.718262,0.660156
1541872953036745,0.267578,-0.813477,0.635254
1541872953058748,0.268555,-0.785645,0.631836
1541872953079784,0.168945,-0.783203,0.632813
1541872953102839,0.0585938,-0.776367,0.602539
1541872953118806,0.00830078,-0.760254,0.560547
1541872953139828,-0.0620117,-0.781738,0.473145
1541872953155827,-0.14209,-0.721191,0.452637
1541872953178847,-0.293945,-0.606934,0.484863
1541872953199866,-0.425781,-0.532227,0.544434
1541872953215895,-0.514648,-0.522949,0.537598
1541872953238897,-0.560547,-0.584473,0.534668
1541872953259932,-0.581543,-0.674805,0.558105
1541872953275945,-0.614746,-0.787109,0.647461
1541872953298964,-0.605469,-0.836426,0.717773
1541872953320973,-0.51709,-0.849609,0.702148
1541872953336033,-0.425781,-0.904297,0.746094
1541872953359017,-0.345703,-0.934082,0.714355
1541872953381026,-0.195801,-0.924805,0.609863
1541872953396043,-0.00976563,-0.880371,0.506836
1541872953419062,0.169922,-0.830078,0.439941
1541872953441079,0.348145,-0.786133,0.370117
1541872953462098,0.561523,-0.794434,0.253418
1541872953479148,0.822266,-0.621094,0.213867
1541872953501113,1.03662,-0.457031,0.16748
1541872953522148,1.0918,-0.335938,0.128906
1541872953539197,1.19727,-0.277832,0.104492
1541872953561171,1.22754,-0.340332,0.251953
1541872953582197,1.16797,-0.432129,0.345703
1541872953599210,0.978516,-0.466309,0.499512
1541872953621210,0.737793,-0.53418,0.536621
1541872953642246,0.663086,-0.559082,0.555176
1541872953659256,0.632324,-0.544434,0.499023
1541872953687284,0.568848,-0.47998,0.478027
1541872953702297,0.550293,-0.466309,0.427246
1541872953719294,0.546387,-0.57666,0.465332
1541872953742329,0.51709,-0.604004,0.541992
1541872953762329,0.509766,-0.623047,0.640137
1541872953779367,0.475586,-0.698242,0.676758
1541872953801378,0.417969,-0.771973,0.65625
1541872953822395,0.393066,-0.710938,0.597656
1541872953838408,0.431152,-0.824219,0.487793
1541872953861423,0.582031,-0.97998,0.474609
1541872953882480,0.70166,-0.942871,0.350098
1541872953899456,0.657227,-0.80127,0.376953
1541872953921458,0.592773,-0.801758,0.294434
1541872953942529,0.595215,-0.831055,0.334961
1541872953958501,0.578125,-0.850586,0.398438
1541872953981509,0.631836,-0.918457,0.452637
1541872954002543,0.572754,-0.958496,0.506348
1541872954019539,0.459961,-0.955566,0.524902
1541872954041576,0.414063,-1.02783,0.531738
1541872954062593,0.473145,-1.15088,0.594238
1541872954078602,0.635254,-1.26318,0.662109
1541872954101641,0.758301,-1.2002,0.583496
1541872954122642,0.996094,-1.1626,0.510742
1541872954138656,1.34277,-1.146,0.446777
1541872954161675,1.44775,-0.90625,0.319824
1541872954182692,1.51709,-0.805176,0.205566
1541872954198705,1.50586,-0.84668,0.0214844
1541872954221725,1.55127,-0.691895,-0.0683594
1541872954243722,1.53125,-0.5625,-0.0776367
1541872954258735,1.36182,-0.499512,-0.0644531
1541872954281769,1.29736,-0.421875,-0.0166016
1541872954303787,1.30273,-0.567383,-0.0380859
1541872954318806,1.18848,-0.665527,-0.0654297
1541872954341824,1.1167,-0.608398,-0.0551758
1541872954363822,1.07813,-0.474609,0.00244141
1541872954384859,0.88623,-0.406738,-0.0429688
1541872954401871,0.768555,-0.312988,-0.0385742
1541872954423881,0.597656,-0.309082,0.00488281
1541872954444908,0.42627,-0.208008,0.0209961
1541872954461957,0.230957,-0.100586,0.00976563
1541872954483921,0.0625,-0.0957031,0.0410156
1541872954506970,-0.0786133,-0.179688,0.117676
1541872954521968,-0.12793,-0.247559,0.247559
1541872954543991,-0.105469,-0.266602,0.366699
1541872954565007,-0.0649414,-0.372559,0.509277
1541872954581023,0.00537109,-0.516602,0.615723
1541872954604041,0.0766602,-0.498047,0.680664
1541872954625092,0.0981445,-0.440918,0.68457
1541872954641053,0.178223,-0.493164,0.692871
1541872954664088,0.365234,-0.584473,0.654785
1541872954669074,0.560059,-0.516602,0.626953
1541872954692111,0.660156,-0.375977,0.651855
1541872954707123,0.702637,-0.303711,0.620117
1541872954729142,0.696289,-0.266602,0.60498
1541872954752161,0.696289,-0.303711,0.587891
1541872954767174,0.780273,-0.362305,0.580566
1541872954789191,0.867188,-0.362305,0.574707
1541872954812211,0.908203,-0.385742,0.538574
1541872954827223,0.900879,-0.430664,0.458496
1541872954849276,0.907715,-0.467773,0.455566
1541872954872260,0.946289,-0.378906,0.438965
1541872954888254,0.950684,-0.234863,0.402344
1541872954909326,0.931152,-0.252441,0.185059
1541872954932310,0.939453,-0.48877,0.222168
1541872954947322,0.891602,-0.501953,0.271973
1541872954969341,0.865723,-0.405273,0.283203
1541872954987346,0.834961,-0.435059,0.271484
1541872955006372,0.775391,-0.479492,0.233887
1541872955029389,0.757324,-0.536621,0.252441
1541872955064409,0.736328,-0.569336,0.278809
1541872955069423,0.748535,-0.580078,0.327637
1541872955090422,0.774902,-0.489746,0.337402
1541872955104448,0.59668,-0.474121,-0.239746
1541872955126470,0.645996,-0.150879,-0.509766
1541872955150470,1.15723,-0.51709,0.99707
1541872955164538,0.758301,-0.151855,-0.362793
1541872955186520,0.813477,-0.558594,0.632813
1541872955210534,1.13135,-0.339844,0.714355
1541872955224553,0.735352,-0.243164,-0.457031
1541872955246568,0.951172,-0.452637,0.244141
1541872955269588,0.950195,-0.354492,0.246582
1541872955284600,0.875488,-0.382813,0.217773
1541872955306617,0.925293,-0.38623,0.187988
1541872955329638,0.904785,-0.428223,0.220215
1541872955344649,0.882324,-0.442383,0.247559
1541872955366668,0.802734,-0.44873,0.19873
1541872955389687,0.902832,-0.380859,0.506836
1541872955404699,0.833984,-0.702148,0.501953
1541872955426717,0.740234,-0.587402,0.13916
1541872955449736,0.877441,-0.410645,0.259277
1541872955464748,0.916504,-0.474121,0.253418
1541872955486759,0.871094,-0.434082,0.260742
1541872955509785,0.829102,-0.464355,0.26123
1541872955524798,0.852051,-0.440918,0.26416
1541872955546816,0.88623,-0.420898,0.239746
1541872955569836,0.898438,-0.388184,0.148438
1541872955584843,0.994141,-0.384766,0.176758
1541872955606865,0.943359,-0.36084,0.160156
1541872955629884,0.908203,-0.311523,0.199219
1541872955644895,0.955566,-0.29541,0.178223
1541872955666915,0.992676,-0.211426,0.153809
1541872955689915,1.0415,-0.203613,0.118164
1541872955704927,1.06494,-0.256836,0.157715
1541872955726999,1.04004,-0.333984,0.238281
1541872955749980,0.991699,-0.453125,0.147461
1541872955764993,0.969727,-0.549805,0.0810547
1541872955787010,1.03662,-0.599121,0.0717773
1541872955809032,0.949707,-0.591797,0.090332
1541872955824026,0.862305,-0.611816,0.201172
1541872955847065,0.821289,-0.702148,0.23291
1541872955869081,0.701172,-0.728516,0.224609
1541872955884094,0.613281,-0.820801,0.198242
1541872955907108,0.577148,-0.73584,0.186035
1541872955929131,0.537598,-0.74707,0.161621
1541872955947127,0.540039,-0.801758,0.142578
1541872955968145,0.540527,-0.82666,0.151855
1541872955989180,0.588867,-0.771973,0.117676
1541872956007183,0.638672,-0.702637,0.104492
1541872956028194,0.656738,-0.726563,0.0952148
1541872956049213,0.655273,-0.765625,0.0292969
1541872956067225,0.660645,-0.78418,0.0668945
1541872956088242,0.644043,-0.740723,0.0385742
1541872956109316,0.664063,-0.660156,0.0546875
1541872956126302,0.655762,-0.714355,0.0336914
1541872956149313,0.67627,-0.760742,0.0541992
1541872956170329,0.685059,-0.694824,0.0205078
1541872956186339,0.668457,-0.660156,0.0273438
1541872956209363,0.655273,-0.734375,0.00878906
1541872956230379,0.67627,-0.739258,0.0146484
1541872956246373,0.678711,-0.742676,0.00488281
1541872956269399,0.672852,-0.790527,0.0126953
1541872956290428,0.657227,-0.79834,-0.0161133
1541872956306425,0.644043,-0.775391,-0.0249023
1541872956329496,0.638672,-0.794922,-0.0336914
1541872956350479,0.607422,-0.856445,-0.0415039
1541872956366471,0.61084,-0.881836,-0.034668
1541872956389510,0.604492,-0.858398,-0.0585938
1541872956410510,0.620117,-0.844727,-0.0566406
1541872956426521,0.654785,-0.858398,-0.0483398
1541872956449561,0.653809,-0.853516,-0.0488281
1541872956470579,0.659668,-0.80127,-0.0263672
1541872956486570,0.694824,-0.756836,-0.034668
1541872956509603,0.727051,-0.742676,-0.0185547
1541872956530662,0.790039,-0.731934,-0.00537109
1541872956546621,0.812012,-0.709961,0.0429688
1541872956569640,0.82666,-0.682617,0.124023
1541872956590685,0.833496,-0.635254,0.20752
1541872956606672,0.807129,-0.572266,0.274902
1541872956629705,0.775879,-0.519043,0.307129
1541872956650723,0.774902,-0.487793,0.326172
1541872956666739,0.776855,-0.475098,0.361816
1541872956689741,0.76709,-0.512207,0.391113
1541872956709774,0.774414,-0.554199,0.409668
1541872956726769,0.809082,-0.596191,0.412109
1541872956748823,0.840332,-0.652344,0.416016
1541872956769824,0.882324,-0.660156,0.41748
1541872956786838,0.848145,-0.533203,0.4375
1541872956808848,0.744141,-0.369141,0.432129
1541872956829873,0.680664,-0.274414,0.388672
1541872956846886,0.690918,-0.32959,0.344727
1541872956868901,0.739258,-0.443359,0.287598
1541872956889958,0.765625,-0.522461,0.276367
1541872956905916,0.778809,-0.484863,0.290039
1541872956928938,0.771484,-0.452148,0.347656
1541872956949972,0.766602,-0.445801,0.386719
1541872956965976,0.757324,-0.51123,0.401367
1541872956988994,0.728516,-0.537109,0.399902
1541872957010022,0.679199,-0.569824,0.395996
1541872957026017,0.646973,-0.616699,0.387207
1541872957049034,0.631836,-0.665527,0.338379
1541872957070071,0.616211,-0.713379,0.334961
1541872957086065,0.610352,-0.726563,0.329102
1541872957109085,0.617676,-0.721191,0.323242
1541872957139123,0.766602,-0.445801,0.386719
1541872957146114,0.592285,-0.814453,0.227539
1541872957157124,0.757324,-0.51123,0.401367
1541872957169148,0.45166,-0.833496,0.0654297
1541872957192168,0.492188,-0.809082,-0.0107422
1541872957206183,0.443359,-0.743652,-0.220215
1541872957229183,0.750488,-0.855957,0.199219
1541872957252215,0.84668,-1.01611,0.386719
1541872957273273,0.360352,-0.600098,-0.319824
1541872957289234,0.692871,-0.790039,0.205566
1541872957312253,0.771484,-1.01514,0.304688
1541872957333281,0.321777,-0.634277,-0.359863
1541872957349301,0.477051,-0.657715,-0.0185547
1541872957371319,0.745605,-0.997559,0.349609
1541872957393318,0.317871,-0.77832,-0.337402
1541872957409351,0.495117,-0.711426,-0.17334
1541872957431365,0.825195,-1.06445,0.323242
1541872957452386,0.75,-0.898438,0.0551758
1541872957469383,0.593262,-0.838867,-0.00390625
1541872957499424,0.541504,-0.843262,-0.00195313
1541872957512435,0.511719,-0.874512,0.00390625
1541872957529449,0.492676,-0.865723,0.00195313
1541872957551459,0.483887,-0.871094,0.0141602
1541872957572485,0.519531,-0.876465,0.0219727
1541872957589500,0.554199,-0.87207,0.043457
1541872957611501,0.530273,-0.898926,0.0244141
1541872957632534,0.519043,-0.924316,0.0332031
1541872957649548,0.50293,-0.90332,0.0332031
1541872957671546,0.487793,-0.928711,0.0292969
1541872957692621,0.48877,-0.972656,0.027832
1541872957708579,0.474609,-0.980957,0.0317383
1541872957731597,0.449707,-0.917969,0.0610352
1541872957752669,0.429688,-0.890137,0.0722656
1541872957769633,0.442383,-0.897949,0.0913086
1541872957791645,0.442871,-0.906738,0.0932617
1541872957814685,0.439453,-0.900391,0.0908203
1541872957829696,0.44043,-0.925781,0.0922852
1541872957851696,0.450684,-0.934082,0.0883789
1541872957872731,0.48291,-0.939941,0.0922852
1541872957888737,0.492676,-0.916016,0.0991211
1541872957911756,0.498535,-0.91748,0.103027
1541872957932782,0.493652,-0.924805,0.11377
1541872957948795,0.480957,-0.899902,0.112305
1541872957971814,0.47168,-0.874023,0.103516
1541872957992832,0.467285,-0.873535,0.0913086
1541872958008830,0.450684,-0.880371,0.0942383
1541872958031863,0.433105,-0.898438,0.0986328
1541872958052916,0.442383,-0.905762,0.100098
1541872958068894,0.455078,-0.907227,0.0947266
1541872958091912,0.462402,-0.898438,0.0874023
1541872958113931,0.458496,-0.883789,0.0805664
1541872958128942,0.445313,-0.881348,0.0849609
1541872958151962,0.447266,-0.902344,0.0888672
1541872958173978,0.452637,-0.929688,0.0908203
1541872958188979,0.448242,-0.915527,0.0878906
1541872958212004,0.45166,-0.908203,0.0888672
1541872958234021,0.446777,-0.897461,0.0883789
1541872958249042,0.45752,-0.896973,0.097168
1541872958272062,0.451172,-0.896973,0.0942383
1541872958294061,0.453613,-0.911133,0.090332
1541872958309091,0.455566,-0.908691,0.0976563
1541872958332112,0.454102,-0.90332,0.0917969
1541872958354113,0.450195,-0.915527,0.0927734
1541872958369142,0.455078,-0.93457,0.0947266
1541872958392160,0.458008,-0.93457,0.0883789
1541872958414158,0.450195,-0.935547,0.0922852
1541872958429190,0.422363,-0.95752,0.0966797
1541872958452209,0.412598,-0.933105,0.101563
1541872958474209,0.42627,-0.920898,0.0986328
1541872958495245,0.422852,-0.931152,0.0869141
1541872958512260,0.414063,-0.923828,0.0805664
1541872958534259,0.401367,-0.912598,0.0883789
1541872958555330,0.406738,-0.92334,0.0820313
1541872958572308,0.383789,-0.943848,0.0737305
1541872958594319,0.359375,-0.940918,0.0683594
1541872958615345,0.345703,-0.936035,0.0654297
1541872958632357,0.312988,-0.924805,0.0673828
1541872958654368,0.29834,-0.914063,0.0595703
1541872958683417,0.286133,-0.894531,0.0522461
1541872958692389,0.305664,-0.877441,0.0751953
1541872958714425,0.312012,-0.894043,0.0761719
1541872958743446,0.335449,-0.87793,0.101563
1541872958751438,0.349609,-0.946289,0.0957031
1541872958774471,0.364258,-1.00488,0.0727539
1541872958795493,0.361816,-0.971191,0.0473633
1541872958811505,0.378418,-0.975098,0.034668
1541872958834526,0.350098,-0.989746,0.0244141
1541872958855542,0.347168,-0.970703,0.00976563
1541872958871555,0.32959,-0.977539,-0.00585938
1541872958894574,0.303711,-0.958496,-0.0185547
1541872958915592,0.294434,-0.925781,-0.0234375
1541872958931606,0.276855,-0.929199,-0.0283203
1541872958954626,0.27002,-0.949219,-0.043457
1541872958975677,0.254883,-0.93457,-0.0654297
1541872958991657,0.251465,-0.943848,-0.0629883
1541872959014672,0.251953,-0.958008,-0.0732422
1541872959036673,0.263184,-0.974121,-0.0883789
1541872959051703,0.277832,-0.98877,-0.0996094
1541872959074723,0.29541,-0.989746,-0.107422
1541872959096721,0.296387,-1.00488,-0.109863
1541872959111733,0.295898,-1.04004,-0.128418
1541872959118740,0.29834,-1.04736,-0.13623
1541872959139778,0.298828,-1.04541,-0.15332
1541872959162794,0.295898,-1.03027,-0.155762
1541872959178808,0.289063,-1.03662,-0.162598
1541872959199821,0.290039,-1.02295,-0.178711
1541872959222842,0.272949,-1.03418,-0.180176
1541872959239860,0.258789,-1.04102,-0.175293
1541872959259875,0.245117,-1.0293,-0.166016
1541872959281928,0.227051,-1.01758,-0.166504
1541872959298908,0.212891,-1.0083,-0.15918
1541872959319924,0.197754,-1.01074,-0.154785
1541872959341943,0.193359,-1.03516,-0.172363
1541872959358938,0.196777,-1.05371,-0.18457
1541872959379975,0.236816,-1.04395,-0.185547
1541872959401992,0.228027,-1.03809,-0.183105
1541872959419006,0.213379,-1.0542,-0.182129
1541872959440023,0.225586,-1.02588,-0.19043
1541872959462041,0.196777,-1.03955,-0.195801
1541872959479057,0.1875,-1.06787,-0.183105
1541872959500073,0.164063,-1.05615,-0.160156
1541872959522090,0.163574,-1.00781,-0.125488
1541872959539106,0.162109,-1.01221,-0.105469
1541872959560122,0.17334,-1.00049,-0.0786133
1541872959582176,0.176758,-0.990234,-0.0600586
1541872959599194,0.176758,-1.00342,-0.0439453
1541872959620173,0.187012,-1.03711,-0.0229492
1541872959642225,0.193848,-1.05859,-0.00390625
1541872959659204,0.208984,-1.08984,0.0175781
1541872959680222,0.213867,-1.0791,0.0444336
1541872959702240,0.222168,-1.05322,0.106445
1541872959719254,0.218262,-0.980469,0.177246
1541872959740270,0.197754,-0.929688,0.22168
1541872959762270,0.196777,-0.936035,0.231934
1541872959780285,0.212891,-0.911133,0.248047
1541872959800315,0.219727,-0.886719,0.266602
1541872959822340,0.196289,-0.925781,0.268555
1541872959838351,0.200684,-0.946289,0.256836
1541872959860366,0.197266,-0.940918,0.246094
1541872959882388,0.170898,-0.959961,0.241699
1541872959898401,0.150391,-0.949707,0.22168
1541872959920400,0.141113,-0.922852,0.206055
1541872959942473,0.127441,-0.911621,0.193359
1541872959960452,0.129883,-0.910645,0.185547
1541872959979504,0.130859,-0.93457,0.179199
1541872960002487,0.14209,-0.921875,0.15625
1541872960020502,0.19873,-0.983398,0.115234
1541872960039518,0.234863,-0.997559,0.0498047
1541872960069543,0.260254,-0.966309,-0.000976563
1541872960080551,0.250977,-0.932617,-0.0200195
1541872960099566,0.216797,-0.911133,-0.0268555
1541872960122586,0.198242,-0.900391,-0.0117188
1541872960140596,0.178711,-0.919922,-0.0273438
1541872960159652,0.168457,-0.927734,-0.0341797
1541872960182635,0.164551,-0.918457,-0.0146484
1541872960200647,0.150879,-0.910156,0.0180664
1541872960219668,0.125488,-0.911621,0.0512695
1541872960242685,0.118164,-0.916016,0.0844727
1541872960260700,0.106934,-0.918945,0.100586
1541872960279696,0.0844727,-0.929688,0.0922852
1541872960302734,0.0605469,-0.924805,0.0952148
1541872960320749,0.0224609,-0.938477,0.108398
1541872960339764,0.0180664,-0.935059,0.112305
1541872960357761,0.0288086,-0.95752,0.126465
1541872960380798,0.0737305,-1.04199,0.117676
1541872960399815,0.102539,-1.11768,0.0932617
1541872960417820,0.158691,-1.26953,0.0532227
1541872960440843,0.233398,-1.53906,0.00585938
1541872960459864,0.373535,-1.48633,-0.00439453
1541872960477879,0.391113,-1.15186,0.0737305
1541872960500879,0.362793,-1.01807,0.116211
1541872960519913,0.366211,-1.06982,0.111328
1541872960537928,0.368164,-1.08057,0.106445
1541872960560947,0.368164,-1.09277,0.0859375
1541872960580964,0.310547,-1.104,0.0854492
1541872960596958,0.253418,-1.03027,0.0869141
1541872960619995,0.220703,-0.937012,0.0830078
1541872960640996,0.212402,-0.915527,0.0791016
1541872960657018,0.188965,-0.916504,0.0698242
1541872960687032,0.178711,-0.918945,0.0581055
1541872960701063,0.187012,-0.908203,0.0454102
1541872960717068,0.174316,-0.885742,0.0649414
1541872960740089,0.160645,-0.866211,0.0776367
1541872960761103,0.152832,-0.883301,0.0878906
1541872960777122,0.144531,-0.893066,0.0898438
1541872960800126,0.129883,-0.889648,0.0874023
1541872960821159,0.121582,-0.897949,0.0834961
1541872960837164,0.103516,-0.933594,0.0761719
1541872960860190,0.106934,-0.947266,0.078125
1541872960881208,0.138672,-1.00146,0.0795898
1541872960904263,0.193359,-1.11426,0.0864258
1541872960919239,0.227051,-1.1333,0.0849609
1541872960942250,0.269531,-1.18359,0.102539
1541872960956264,0.28418,-1.17139,0.129883
1541872960979302,0.266602,-1.35693,0.125488
1541872961009313,0.327637,-1.51221,0.0888672
1541872961032319,0.412109,-1.07764,0.143555
1541872961039323,0.368652,-0.74707,0.213867
1541872961062361,0.288574,-0.763184,0.220215
1541872961083378,0.278809,-0.729004,0.200195
1541872961099377,0.287598,-0.821289,0.133789
1541872961122409,0.270508,-0.945801,0.0595703
1541872961143428,0.223145,-0.942871,0.0102539
1541872961159431,0.185059,-0.882813,0.00439453
1541872961182460,0.139648,-0.855957,0.0283203
1541872961203476,0.126465,-0.811035,0.0805664
1541872961219480,0.0981445,-0.780762,0.112305
1541872961249494,0.0668945,-0.785645,0.151367
1541872961263562,0.0439453,-0.791992,0.172852
1541872961279535,0.0297852,-0.82666,0.193359
1541872961317551,0.0200195,-0.893555,0.205078
1541872961323574,0.0209961,-0.935059,0.197754
1541872961339569,0.0288086,-0.980469,0.200684
1541872961362608,0.0322266,-1.00342,0.213379
1541872961383624,0.0366211,-1.01807,0.235352
1541872961399619,0.0375977,-1.03027,0.247559
1541872961422650,0.0390625,-1.05225,0.283691
1541872961443670,0.0561523,-1.0791,0.26709
1541872961459670,0.0839844,-1.15918,0.231934
1541872961482700,0.127441,-1.21924,0.198242
1541872961503715,0.157715,-1.25586,0.199219
1541872961519719,0.191406,-1.39697,0.125488
1541872961541797,0.186035,-1.19385,0.124512
1541872961563759,0.145508,-1.06592,0.12207
1541872961579785,0.12207,-1.09668,0.139648
1541872961601839,0.126953,-1.1167,0.117188
1541872961622822,0.17041,-1.07666,0.0869141
1541872961646841,0.185547,-1.06885,0.0610352
1541872961661852,0.184082,-1.09326,0.0283203
1541872961682872,0.173828,-1.01514,0.0263672
1541872961698865,0.157227,-0.927246,0.0561523
1541872961721885,0.123535,-0.879883,0.0844727
1541872961742922,0.0869141,-0.846191,0.104004
1541872961759953,0.0634766,-0.83252,0.105957
1541872961789974,0.0522461,-0.84668,0.0898438
1541872961802970,0.0512695,-0.873047,0.0654297
1541872961819984,0.0546875,-0.897461,0.0478516
1541872961850009,0.074707,-0.90918,0.0341797
1541872961865023,0.0952148,-0.918945,0.0385742
1541872961880033,0.121582,-0.927734,0.0483398
1541872961902042,0.129395,-0.924316,0.0683594
1541872961932057,0.133301,-0.955566,0.0878906
1541872961939065,0.12793,-1.03467,0.0966797
1541872961962083,0.136719,-1.11963,0.0986328
1541872961985121,0.161133,-1.15771,0.0957031
1541872962015145,0.182129,-1.18945,0.109863
1541872962022131,0.194336,-1.4082,0.0927734
1541872962045165,0.29541,-1.36963,0.0380859
1541872962066182,0.342285,-1.02734,0.0664063
1541872962083222,0.274902,-0.814941,0.128418
1541872962111269,0.194336,-0.859375,0.166992
1541872962133243,0.202148,-0.892578,0.150879
1541872962150248,0.253418,-0.999023,0.113281
1541872962164249,0.285645,-1.08594,0.0678711
1541872962225354,0.258301,-1.06348,0.065918
1541872962227322,0.211914,-0.979492,0.10498
1541872962233325,0.138672,-0.882813,0.159668
1541872962246317,0.0854492,-0.838379,0.199219
1541872962262349,0.0512695,-0.860352,0.220215
1541872962285359,0.0239258,-0.869141,0.188965
1541872962313392,0.00830078,-0.860352,0.1875
1541872962328404,0.0209961,-0.863281,0.182129
1541872962352417,0.0263672,-0.841309,0.183594
1541872962410471,0.03125,-0.832031,0.191406
1541872962429487,0.0302734,-0.849121,0.193848
1541872962442498,0.00439453,-0.873047,0.196289
1541872962449484,-0.00488281,-0.886719,0.203125
1541872962464497,0.00585938,-0.957031,0.182129
1541872962485533,0.0341797,-0.994141,0.154785
1541872962502546,0.0634766,-1.05762,0.13623
1541872962524562,0.0786133,-1.17529,0.13916
1541872962546618,0.129883,-1.59326,0.0649414
1541872962562597,0.267578,-1.45801,0.0146484
1541872962584609,0.259766,-1.20605,0.00976563
1541872962613621,0.228027,-1.30957,0.000488281
1541872962621630,0.202148,-1.34131,-0.0327148
1541872962644649,0.21582,-1.23486,-0.0756836
1541872962673689,0.225586,-1.15576,-0.0766602
1541872962695706,0.207031,-1.03906,-0.0654297
1541872962704693,0.158691,-0.888184,-0.0620117
1541872962725733,0.0942383,-0.779297,-0.043457
1541872962741746,0.0551758,-0.759277,-0.0283203
1541872962765763,0.0366211,-0.796875,-0.0429688
1541872962787781,0.0327148,-0.799316,-0.0444336
1541872962825816,0.0302734,-0.830078,-0.0800781
1541872962838818,0.0283203,-0.897949,-0.131348
1541872962847812,0.0380859,-0.968262,-0.156738
1541872962869832,0.0297852,-0.966797,-0.148926
1541872962884844,0.0644531,-0.941406,-0.124512
1541872962914886,0.0810547,-0.985352,-0.126953
1541872962937902,0.0913086,-1.01025,-0.104004
1541872962990946,0.0966797,-1.04883,-0.081543
1541872962996954,0.138672,-1.13379,-0.0825195
1541872963004961,0.209961,-1.16504,-0.0942383
1541872963027980,0.241211,-1.21338,-0.0600586
1541872963049998,0.235352,-1.34668,-0.0263672
1541872963065007,0.323242,-1.43262,-0.103027
1541872963087020,0.398926,-1.11865,-0.0166016
1541872963127062,0.362305,-0.87793,0.0874023
1541872963131064,0.23291,-0.765137,0.149902
1541872963155085,0.129883,-0.751953,0.147949
1541872963176102,0.125,-0.81543,0.149902
1541872963185109,0.180664,-0.991211,0.059082
1541872963208128,0.213867,-1.01758,0.0283203
1541872963236152,0.230469,-0.977051,0.0234375
1541872963252157,0.171387,-0.948242,0.0478516
1541872963275163,0.156738,-0.878418,0.0825195
1541872963296200,0.128906,-0.871094,0.081543
1541872963305208,0.103516,-0.866211,0.090332
1541872963327209,0.109375,-0.870605,0.0898438
1541872963350249,0.114746,-0.873535,0.0849609
1541872963364238,0.11084,-0.882813,0.0820313
1541872963387256,0.0913086,-0.907715,0.0756836
1541872963408288,0.0908203,-0.931641,0.0698242
1541872963425288,0.0859375,-0.9375,0.0712891
1541872963478395,0.0800781,-0.945801,0.0776367
1541872963485392,0.0854492,-0.93457,0.0717773
1541872963488356,0.0927734,-0.947754,0.0673828
1541872963515363,0.0927734,-0.976563,0.0541992
1541872963531395,0.100586,-1.04492,0.0439453
1541872963554394,0.108887,-1.07129,0.0209961
1541872963567442,0.125488,-1.14258,0.0214844
1541872963582436,0.141602,-1.22607,0.0307617
1541872963636480,0.19873,-1.47656,-0.00830078
1541872963641486,0.274414,-1.25,0.00292969
1541872963702536,0.132324,-1.15332,0.0664063
1541872963705539,0.127441,-1.23242,0.0371094
1541872963712533,0.171387,-1.21143,0.0209961
1541872963756580,0.199707,-1.22021,0.00146484
1541872963763580,0.19043,-1.1543,-0.0170898
1541872963775596,0.124512,-0.910156,0.0317383
1541872963793611,0.0820313,-0.867676,0.0551758
1541872963846655,0.0610352,-0.854004,0.0649414
1541872963852659,0.0644531,-0.850586,0.0507813
1541872963854642,0.0791016,-0.901367,0.0263672
1541872963956746,0.106934,-0.950684,-0.027832
1541872963966747,0.140625,-0.92041,-0.0424805
1541872963996761,0.157227,-0.953613,-0.0561523
1541872963997770,0.179688,-0.936523,-0.0703125
1541872964064834,0.182129,-0.965332,-0.0634766
1541872964070840,0.185059,-1.02539,-0.046875
1541872964093858,0.212402,-1.31201,0.0454102
1541872964122918,0.261719,-1.37793,0.0390625
1541872964125920,0.318359,-1.04248,0.133301
1541872964220963,0.286621,-0.840332,0.21875
1541872964222945,0.181641,-0.86084,0.256348
1541872964257973,0.227051,-1.00537,0.147949
1541872964259991,0.170898,-0.924805,0.15918
1541872964296008,0.104492,-0.85498,0.183594
1541872964312039,0.0634766,-0.845703,0.185547
1541872964325040,0.0722656,-0.851074,0.20752
1541872964332054,0.0678711,-0.833984,0.185059
1541872964409117,0.0239258,-0.872559,0.181641
1541872964459159,0.0141602,-0.891113,0.178223
1541872964513199,0.0219727,-0.900879,0.191406
1541872964520209,0.0849609,-0.906738,0.218262
1541872964536224,0.0537109,-1.02734,0.165039
1541872964597275,0.0688477,-1.06152,0.150879
1541872964616289,0.0727539,-1.26318,0.142578
1541872964664329,0.253418,-1.24609,0.0478516
1541872964670333,0.213379,-1.07764,0.090332
1541872964672334,0.141602,-1.12158,0.128418
1541872964700357,0.117188,-1.13818,0.0805664
1541872964706362,0.131348,-1.1416,0.0292969
1541872964737387,0.165527,-1.15186,0.0175781
1541872964739390,0.188477,-1.10303,0.00341797
1541872964754403,0.183105,-1.06348,-0.00341797
1541872964775419,0.195313,-1.02686,0.0151367
1541872964798439,0.211914,-0.956055,0.0351563
1541872964819456,0.192383,-0.885742,0.0244141
1541872964850478,0.153809,-0.887695,0.015625
1541872964852483,0.118164,-0.877441,0.0166016
1541872964894517,0.0898438,-0.867188,0.015625
1541872964901522,0.0644531,-0.869141,0.0161133
1541872964925539,0.0551758,-0.875488,0.019043
1541872964933547,0.050293,-0.90918,0.0263672
1541872964963592,0.0380859,-0.898926,0.0336914
1541872964978588,0.0336914,-0.921875,0.0551758
1541872965001601,0.0415039,-0.942383,0.0673828
1541872965030630,0.065918,-0.987305,0.065918
1541872965032632,0.128906,-1.02051,0.0703125
1541872965061652,0.168457,-1.05127,0.0908203
1541872965091669,0.178711,-1.09912,0.119629
1541872965103685,0.196777,-1.32422,0.109863
1541872965112679,0.28418,-1.38965,0.0834961
1541872965136706,0.318848,-1.11621,0.135254
1541872965157735,0.247559,-0.975098,0.210449
1541872965241843,0.174805,-0.985352,0.233887
1541872965253794,0.176758,-1.0249,0.208008
1541872965263818,0.244629,-0.943848,0.133789
1541872965293827,0.235352,-0.90625,0.163574
1541872965306857,0.215332,-0.858887,0.182617
1541872965330876,0.210938,-0.79541,0.18457
1541872965369909,0.206543,-0.855957,0.18457
1541872965391963,0.154785,-0.878418,0.172852
1541872965392911,0.150391,-0.850098,0.180664
1541872965421949,0.139648,-0.874512,0.197754
1541872965502062,0.106934,-0.894043,0.197754
1541872965592086,0.0893555,-0.918457,0.202637
1541872965646139,0.0712891,-0.897949,0.203613
1541872965647118,0.10498,-0.920898,0.222656
1541872965722190,0.101563,-1.20898,0.171387
1541872965929370,0.164551,-1.41309,0.0976563
1541872965984411,0.250977,-1.04248,0.11377
1541872966021442,0.0761719,-0.95459,0.0791016
1541872966023448,0.0410156,-0.997559,0.125488
1541872966050470,0.034668,-0.970703,0.138184
1541872966052473,0.0205078,-0.974121,0.155273
1541872966074486,-0.00341797,-0.976563,0.179688
1541872966125532,-0.00732422,-0.970215,0.189453
1541872966176574,-0.0102539,-0.989258,0.184082
1541872966186582,-0.0161133,-1.01611,0.180176
1541872966188579,-0.00634766,-1.04395,0.170898
1541872966232621,-0.00195313,-1.10303,0.177734
1541872966238626,0.00292969,-1.21094,0.160156
1541872966240618,0.0458984,-1.13574,0.177246
1541872966478818,0.0908203,-0.921875,0.236816
1541872966543876,0.0737305,-0.839844,0.282227
1541872966648964,-0.10791,-0.870605,0.240723
1541872966773047,-0.090332,-0.933105,0.206055
1541872966989244,0.231445,-1.31689,-0.160645
1541872967056317,0.193359,-1.06641,-0.302734
1541872967062304,0.229492,-1.06934,-0.28418
1541872967138403,0.195801,-1.01611,-0.161621
1541872967159383,0.159668,-1.00293,-0.12793
1541872967185405,0.140625,-1.00684,-0.0976563
1541872967204421,0.121582,-1.02979,-0.0869141
1541872967214412,0.123535,-1.03955,-0.0771484
1541872967237450,0.127441,-1.04736,-0.0673828
1541872967288489,0.125488,-1.05225,-0.0634766
1541872967289491,0.131348,-1.04199,-0.0605469
1541872967310544,0.13623,-1.02197,-0.0600586
1541872967313511,0.138184,-1.00635,-0.0693359
1541872967462634,0.140137,-0.998047,-0.0908203
1541872967499656,0.138184,-0.99707,-0.107422
1541872967549705,0.105957,-1.021,-0.090332
1541872967574723,0.0688477,-1.0293,-0.0737305
1541872967775927,0.0581055,-1.03809,-0.0615234
1541872967778891,0.0615234,-1.02881,-0.0639648
1541872967815924,0.0961914,-1.01953,-0.0825195
1541872967888020,0.097168,-1.00293,-0.090332
1541872967889980,0.0952148,-0.995117,-0.0864258
1541872967912003,0.0874023,-1.02295,-0.0991211
1541872967927016,0.078125,-1.00293,-0.0957031
1541872967964030,0.0688477,-1.00635,-0.0986328
1541872968016126,0.0537109,-1.00977,-0.0986328
1541872968037108,0.0454102,-1.02881,-0.0976563
1541872968071136,0.0512695,-1.01025,-0.105469
1541872968113151,0.0620117,-1.01221,-0.102539
1541872968211251,0.0551758,-1.00244,-0.108398
1541872968332335,0.0766602,-1.00391,-0.143555
1541872968413417,0.0864258,-1.02637,-0.144043
1541872968473466,0.0942383,-0.989746,-0.134277
1541872968541516,0.0947266,-1.05664,-0.00683594
1541872968549529,0.0961914,-0.918945,0.0917969
1541872968748693,0.00830078,-0.936523,0.211426
1541872968780721,0.0249023,-1.01074,0.216309
1541872968783703,0.0698242,-1.07422,0.221191
1541872968805720,0.0703125,-0.996582,0.125
1541872968847811,0.0654297,-1.00244,0.119629
1541872968850776,0.0512695,-1.00049,0.115723
1541872968917815,0.0375977,-0.945801,0.119629
1541872968938842,0.0117188,-0.916992,0.120117
1541872968961870,-0.0224609,-0.901367,0.129395
1541872969041971,-0.027832,-0.911133,0.116211
1541872969067992,-0.0180664,-0.935059,0.0922852
1541872969193060,0.0488281,-1.01953,0.0898438
1541872969223068,0.0258789,-1.11621,0.0913086
1541872969253109,0.0639648,-1.28564,0.0541992
1541872969306152,0.236328,-1.17432,0.0195313
1541872969308149,0.179688,-0.972656,0.0444336
1541872969314159,0.125977,-0.885742,0.0810547
1541872969326164,0.103516,-0.907715,0.0639648
1541872969344164,0.101563,-0.976563,0.0356445
1541872969381196,0.118164,-1.00732,-0.00488281
1541872969386218,0.134766,-1.01611,-0.0249023
1541872969408236,0.149902,-1.03418,-0.0224609
1541872969442246,0.160156,-1.0249,-0.0327148
1541872969455257,0.176758,-0.980957,-0.0302734
1541872969501313,0.177246,-0.954102,-0.0170898
1541872969503297,0.146973,-0.907715,-0.00732422
1541872969532334,0.11377,-0.90918,0.00390625
1541872969554349,0.0810547,-0.925781,0.0175781
1541872969621414,0.0595703,-0.947266,0.0214844
1541872969749513,0.0551758,-0.956543,0.0185547
1541872969755557,0.0517578,-0.977539,0.0214844
1541872969772520,0.043457,-1.07861,0.0639648
1541872969793550,0.0854492,-1.09814,0.0693359
1541872969807547,0.124023,-1.07715,0.078125
1541872969854605,0.147949,-1.06738,0.0927734
1541872969876603,0.150391,-1.03613,0.101563
1541872969878624,0.090332,-1.20557,0.0878906
1541872969899638,0.13623,-1.31299,-0.0219727
1541872969920655,0.194824,-1.13477,-0.0175781
1541872969952667,0.236816,-0.956543,0.0722656
1541872970056762,0.187012,-0.87793,0.124512
1541872970078790,0.169922,-0.908203,0.148438
1541872970098806,0.124512,-0.972656,0.0644531
1541872970257937,0.0834961,-0.943359,0.0854492
1541872970303974,0.0751953,-0.893066,0.112793
1541872970325974,0.0400391,-0.936523,0.153809
1541872970386043,0.0234375,-1.00488,0.115234
1541872970389040,0.0385742,-1.02637,0.10791
1541872970425069,0.0678711,-1.03906,0.101074
1541872970476116,0.0761719,-1.12793,0.108887
1541872970499135,0.155273,-1.33838,-0.00439453
1541872970505141,0.171387,-1.11572,0.0522461
1541872970538167,0.112793,-0.924805,0.0693359
1541872970559171,0.0712891,-0.911133,0.0913086
1541872970574181,0.0825195,-0.989746,0.065918
1541872970576199,0.117676,-1.05957,0.0214844
1541872970590191,0.154297,-1.08301,-0.0356445
1541872970625230,0.174316,-1.08887,-0.0288086
1541872970643253,0.163086,-1.07666,-0.0146484
1541872970648258,0.141602,-1.02197,0.0214844
1541872970664252,0.124023,-0.960938,0.0302734
1541872970729325,0.206543,-0.908203,0.0932617
1541872970844401,0.224121,-0.944824,0.101074
1541872971084618,0.0322266,-0.964844,0.0410156
1541872971121683,0.131348,-1.0835,0.112793
1541872971123631,0.172852,-1.14063,0.107422
1541872971137642,0.239746,-0.93457,0.149902
1541872971142649,0.274414,-0.874023,0.184082
1541872971196707,0.22168,-0.843262,0.224121
1541872971291789,0.155762,-0.870117,0.193359
1541872971352821,0.202148,-1.02881,0.100098
1541872971363848,0.212402,-0.933105,0.119141
1541872971392854,0.189453,-0.935059,0.129395
1541872971413924,0.181152,-0.949219,0.132324
1541872971415890,0.194824,-0.955566,0.129395
1541872971429890,0.216309,-0.973633,0.125488
1541872971450922,0.199707,-0.986328,0.121582
1541872971464922,0.184082,-0.973145,0.132324
1541872971487941,0.178711,-0.962891,0.137207
1541872971525974,0.155273,-0.940918,0.138184
1541872971648082,0.15332,-0.942383,0.155273
1541872971699125,0.154785,-0.953125,0.165039
1541872971735155,0.112793,-0.963379,0.153809
1541872971745145,0.0732422,-0.962402,0.158691
1541872971760176,0.0634766,-0.970703,0.181152
1541872971765160,0.0517578,-0.995117,0.181641
1541872971788180,0.0458984,-1.00391,0.165039
1541872971811216,0.0600586,-0.985352,0.169434
1541872971833216,0.0625,-0.988281,0.168457
1541872971862259,0.0644531,-0.987793,0.158203
1541872971871266,0.0478516,-1.05615,0.14502
1541872971892280,0.0639648,-1.22266,0.112793
1541872971908277,0.114258,-1.22607,0.0620117
1541872971931306,0.173828,-1.08008,0.0761719
1541872971961337,0.214844,-1.08838,0.0712891
1541872971968329,0.160645,-1.11768,0.0317383
1541872971991346,0.158691,-1.10352,0.0170898
1541872972012366,0.160645,-1.08496,0.0244141
1541872972043408,0.148926,-1.02246,0.034668
1541872972086443,0.130371,-0.926758,0.0419922
1541872972120453,0.0893555,-0.903809,0.0595703
1541872972164491,0.0742188,-0.957031,0.0541992
1541872972186527,0.0737305,-1.04883,-0.0180664
1541872972312630,0.103027,-1.06006,-0.0888672
1541872972314622,0.119629,-1.03418,-0.081543
1541872972321636,0.0615234,-0.966309,-0.015625
1541872972345657,0.0209961,-0.975586,-0.00683594
1541872972365656,0.0395508,-0.980957,-0.0078125
1541872972373680,0.0537109,-0.977051,-0.00439453
1541872972418708,0.0625,-0.959961,0.000976563
1541872972435732,0.0556641,-0.945801,-0.00585938
1541872972448723,0.0610352,-0.915039,0.0170898
1541872972450743,0.0522461,-0.909668,0.0380859
1541872972454742,0.0429688,-0.870117,0.0512695
1541872972501787,0.0297852,-0.861816,0.046875
1541872972509783,0.0258789,-0.841309,0.046875
1541872972545822,0.00488281,-0.86377,0.0571289
1541872972547824,-0.0219727,-0.862305,0.0546875
1541872972560825,-0.0395508,-0.888184,0.0449219
1541872972573881,-0.0444336,-0.919922,0.0522461
1541872972603870,-0.0444336,-0.947266,0.0429688
1541872972630893,-0.0415039,-0.96875,0.0351563
1541872972642902,-0.0268555,-0.961426,0.0224609
1541872972655913,0.00195313,-0.941895,0.0395508
1541872972688921,0.0336914,-0.951172,0.0629883
1541872972693927,0.0888672,-0.931641,0.0859375
1541872972715998,0.0439453,-0.919922,0.0786133
1541872972748024,0.0224609,-0.950684,0.0795898
1541872972753993,0.0273438,-0.984375,0.0966797
1541872972778999,0.0126953,-0.957031,0.110352
1541872972802053,-0.0297852,-1.00049,0.129883
1541872972830057,-0.0375977,-1.05908,0.122559
1541872972853077,-0.0107422,-1.12451,0.130371
1541872972859081,0.0102539,-1.16357,0.132324
1541872972875073,0.0395508,-1.19336,0.146973
1541872972904117,0.0253906,-1.23438,0.156738
1541872972919129,0.0551758,-1.30029,0.174805
1541872972937145,0.166016,-1.38086,0.185547
1541872972989187,0.213379,-1.39307,0.180664
1541872972991171,0.19873,-1.33057,0.177246
1541872972997193,0.137695,-1.17725,0.204102
1541872973019211,0.146973,-1.0498,0.215332
1541872973050219,0.123535,-0.967773,0.192871
1541872973055230,0.109863,-0.908691,0.172852
1541872973076259,0.0751953,-0.884277,0.165527
1541872973099272,0.0219727,-0.852539,0.156738
1541872973123288,-0.0107422,-0.829102,0.145996
1541872973136308,0.0141602,-0.815918,0.159668
1541872973176333,0.0273438,-0.78125,0.166504
1541872973178343,0.0244141,-0.773438,0.177246
1541872973206348,0.027832,-0.778809,0.174805
1541872973222361,0.0195313,-0.813477,0.161621
1541872973237382,0.0185547,-0.838379,0.172363
1541872973256404,0.00146484,-0.819336,0.124512
1541872973278427,0.0229492,-0.77002,0.104004
1541872973296439,0.0395508,-0.790039,0.090332
1541872973319439,0.0742188,-0.844238,0.074707
1541872973338475,0.140137,-0.853516,0.0698242
1541872973378491,0.169434,-0.834473,0.0527344
1541872973383495,0.15918,-0.834473,0.0444336
1541872973400509,0.148438,-0.818359,0.0444336
1541872973431551,0.106934,-0.804199,0.0761719
1541872973439559,0.0820313,-0.888184,0.10498
1541872973469578,0.0756836,-1.07227,0.102539
1541872973535618,0.128418,-1.27588,0.0288086
1541872973560658,0.241699,-1.38135,-0.0161133
1541872973612701,0.115234,-1.4209,-0.00439453
1541872973633718,0.0854492,-1.09814,0.0864258
1541872973636717,-0.0146484,-0.927246,0.129883
1541872973695769,-0.149902,-0.850098,0.119629
1541872973708780,-0.194336,-0.78125,0.081543
1541872973716786,-0.0356445,-0.686523,0.0493164
1541872973739797,-0.00683594,-0.667969,0.0566406
1541872973785839,-0.090332,-0.71875,0.0444336
1541872973822870,-0.0507813,-0.803711,0.034668
1541872973844891,0.0371094,-0.893066,0.118164
1541872973866946,0.0820313,-1.06445,0.187012
1541872973896935,0.0820313,-1.13477,0.246094
1541872973898927,0.0805664,-1.23828,0.276367
1541872973971998,0.134766,-1.31445,0.311035
1541872973973980,0.126465,-1.54883,0.328125
1541872973987995,0.155762,-1.47656,0.373047
1541872973993010,0.0947266,-1.28174,0.34668
1541872974016018,0.0727539,-1.09619,0.29834
1541872974037051,0.0576172,-0.987793,0.237305
1541872974060060,0.0439453,-0.934082,0.165039
1541872974077083,0.0400391,-0.893555,0.133301
1541872974097100,0.0302734,-0.889648,0.111816
1541872974113113,0.0439453,-0.876465,0.144043
1541872974136128,0.0507813,-0.863281,0.145996
1541872974158183,0.0761719,-0.844727,0.175293
1541872974173162,0.0874023,-0.826172,0.208984
1541872974196181,0.0883789,-0.818848,0.235352
1541872974218180,0.101563,-0.831543,0.230957
1541872974242216,0.10791,-0.842773,0.233398
1541872974295264,0.0512695,-0.841309,0.225586
1541872974301269,0.0297852,-0.833496,0.217773
1541872974316280,0.0429688,-0.803223,0.200684
1541872974346326,0.0473633,-0.796875,0.183594
1541872974368304,0.0375977,-0.774902,0.145508
1541872974376331,0.0253906,-0.773926,0.122559
1541872974398329,0.0375977,-0.772461,0.0976563
1541872974413347,0.0507813,-0.796387,0.059082
1541872974444384,0.0639648,-0.820801,0.0273438
1541872974467386,0.0556641,-0.864746,0.0244141
1541872974487422,0.046875,-0.969238,0.0493164
1541872974496420,0.0488281,-1.06104,0.0664063
1541872974518427,0.0629883,-1.17432,0.0634766
1541872974547454,0.101563,-1.34131,0.0498047
1541872974565481,0.129883,-1.45947,0.0371094
1541872974579498,0.158203,-1.61377,0.019043
1541872974601517,0.181152,-1.67041,0.0141602
1541872974654559,0.20166,-1.61279,0.0107422
1541872974676577,0.195313,-1.47168,0.0234375
1541872974704601,0.123535,-1.27832,0.0800781
1541872974731622,-0.0551758,-0.994629,0.168945
1541872974835708,-0.0913086,-0.911133,0.186035
1541872974915784,-0.103516,-0.883301,0.161621
1541872974940812,-0.0634766,-0.962402,0.0356445
1541872974986834,-0.00146484,-0.981445,0.125977
1541872974991820,-0.019043,-0.976563,0.121094
1541872975013856,-0.0288086,-0.955566,0.109863
1541872975019860,-0.0458984,-0.95459,0.0922852
1541872975036854,-0.0473633,-0.935547,0.0712891
1541872975058892,-0.0327148,-0.895996,0.0595703
1541872975080902,-0.0419922,-0.865234,0.0532227
1541872975095913,-0.0532227,-0.841309,0.0585938
1541872975118942,-0.0551758,-0.853027,0.0732422
1541872975140957,-0.0341797,-0.851563,0.0957031
1541872975155967,0.00341797,-0.85791,0.124023
1541872975180994,0.0385742,-0.873535,0.14209
1541872975200992,-0.00537109,-0.925293,0.126953
1541872975224029,0.012207,-0.972168,0.125488
1541872975246028,0.0498047,-1.06445,0.108398
1541872975261040,0.0839844,-1.10889,0.0864258
1541872975300091,0.119141,-1.11279,0.110352
1541872975359140,0.145996,-1.14551,0.13916
1541872975362138,0.150879,-1.17578,0.157715
1541872975383140,0.151367,-1.16895,0.169922
1541872975404177,0.140137,-1.39209,0.165527
1541872975406160,0.211426,-1.52637,0.131836
1541872975426179,0.29541,-1.45947,0.169434
1541872975449214,0.248535,-1.26563,0.150879
1541872975464226,0.223633,-1.1333,0.17627
1541872975479221,0.149902,-1.00293,0.150391
1541872975501257,0.0976563,-0.976563,0.140137
1541872975539288,0.0595703,-0.998047,0.118652
1541872975541270,0.0527344,-0.960938,0.097168
1541872975571299,0.0698242,-0.911133,0.106445
1541872975616333,0.109863,-0.894531,0.106934
1541872975645375,0.143555,-0.898926,0.124023
1541872975665393,0.171875,-0.880371,0.154785
1541872975697414,0.179688,-0.921875,0.153809
1541872975720434,0.142578,-0.941895,0.158691
1541872975741490,0.102539,-0.955078,0.150879
1541872975747460,0.0449219,-0.924805,0.158203
1541872975773481,0.0473633,-0.956055,0.174316
1541872975786473,0.0683594,-0.936523,0.192383
1541872975824558,0.100098,-0.90918,0.20752
1541872975826507,0.0742188,-0.927734,0.177246
1541872975847524,0.0498047,-0.906738,0.148926
1541872975867562,0.0854492,-0.908203,0.143066
1541872975899584,0.114746,-0.904297,0.15332
1541872975901568,0.123047,-0.92041,0.162598
1541872975926607,0.141113,-0.917969,0.166016
1541872975953622,0.14209,-0.966309,0.179199
1541872975967622,0.126953,-0.92627,0.19043
1541872975981645,0.103516,-0.888184,0.21582
1541872976004672,0.059082,-0.866699,0.230469
1541872976042705,0.0239258,-0.862305,0.25
1541872976054749,0.00537109,-0.855469,0.232422
1541872976063712,-0.000488281,-0.873535,0.218262
1541872976078733,0.00634766,-0.844238,0.197266
1541872976102753,0.0322266,-0.80957,0.17041
1541872976123751,0.0644531,-0.797852,0.161621
1541872976153795,0.187012,-0.82373,0.176758
1541872976169843,0.186035,-0.874023,0.144531
1541872976191833,0.136719,-1.0332,0.0986328
1541872976204838,0.232422,-1.24463,0.0371094
1541872976251912,0.228516,-1.31445,-0.00683594
1541872976253875,0.223633,-1.39404,-0.0317383
1541872976492054,0.180176,-1.39551,-0.012207
1541872976515084,0.145996,-1.35205,0.0112305
1541872976545107,0.0517578,-0.916016,0.0219727
1541872976589189,0.103027,-0.986816,-0.0170898
1541872976595154,0.0996094,-1.11328,-0.034668
1541872976621181,0.0805664,-1.12354,-0.00488281
1541872976664196,0.0732422,-1.0957,0.0239258
1541872976672222,0.0664063,-1.08936,0.0410156
1541872976694267,0.0463867,-1.02246,0.0966797
1541872976716238,0.0253906,-0.970703,0.106934
1541872976725266,0.0141602,-0.943848,0.103516
1541872976745281,0.0268555,-0.948242,0.0942383
1541872976769286,0.0268555,-0.981445,0.0859375
1541872976791319,0.0361328,-1.0127,0.059082
1541872976822337,0.0556641,-1.04541,0.019043
1541872976824347,0.0761719,-1.08057,-0.00292969
1541872976845365,0.0927734,-1.06982,-0.0219727
1541872976864381,0.120117,-1.05566,-0.00878906
1541872976897442,0.127441,-1.03711,0.00634766
1541872976898394,0.124512,-1.02344,0.043457
1541872976919414,0.104492,-1.01514,0.0585938
1541872976935439,0.097168,-1.00635,0.0698242
1541872976946447,0.09375,-1.01514,0.0668945
1541872976969466,0.103516,-1.02197,0.0556641
1541872976991485,0.106445,-1.03076,0.0463867
1541872977009490,0.117188,-1.0249,0.0356445
1541872977039507,0.121094,-1.02002,0.0366211
1541872977060543,0.123535,-1.00391,0.0458984
1541872977066547,0.119141,-1.00928,0.0478516
1541872977089566,0.119141,-1.0127,0.0585938
1541872977114567,0.127441,-1.00195,0.0668945
1541872977135595,0.13623,-1.01807,0.0673828
1541872977156621,0.126465,-1.00342,0.0693359
1541872977171633,0.128418,-1.02197,0.0629883
1541872977189639,0.130371,-1.01367,0.059082
1541872977211667,0.123535,-1.00439,0.059082
1541872977243676,0.123047,-1.00537,0.0639648
1541872977262709,0.122559,-1.00244,0.0546875
1541872977285764,0.114258,-1.00732,0.0556641
1541872977316774,0.11084,-1.00781,0.0556641
1541872977318737,0.10791,-1.00439,0.0493164
1541872977339771,0.150391,-0.996094,0.0620117
1541872977414834,0.177734,-0.993652,0.065918
1541872977435886,0.163574,-0.999023,0.0683594
1541872977564977,0.163086,-0.998535,0.0742188
1541872977566955,0.155762,-1.00195,0.0693359
1541872977580952,0.171875,-0.992676,0.0810547
1541872977615999,0.129883,-0.989746,0.0625
1541872977708075,0.122559,-1.00098,0.0673828
1541872977782135,0.114258,-0.991699,0.0625
1541872977850173,0.144043,-1.00293,0.0664063
1541872977858195,0.13916,-1.00391,0.0615234
1541872977916246,0.104492,-1.01514,0.0615234
1541872977999302,0.09375,-1.01221,0.0600586
1541872978065370,0.112305,-1.0083,0.0698242
1541872978173450,0.188965,-0.989258,0.0800781
1541872978246519,0.12793,-0.979492,0.111816
1541872978323584,0.110352,-0.991211,0.10791
1541872978376621,0.114258,-1.00684,0.110352
1541872978398626,0.113281,-0.993652,0.117676
1541872978450686,0.0942383,-0.998535,0.11377
1541872978451673,0.0844727,-0.992188,0.102051
1541872978507733,0.0805664,-0.993164,0.106445
1541872978522747,0.177246,-0.981445,0.140625
1541872978548768,0.176758,-1.00635,0.153809
1541872978561779,0.137695,-1.01514,0.134766
1541872978584778,0.130859,-0.990723,0.122559
1541872978599807,0.124023,-0.986816,0.119629
1541872978637829,0.0981445,-0.980469,0.116211
1541872978671869,0.104492,-0.99707,0.111816
1541872978713904,0.101074,-0.992188,0.103027
1541872978749934,0.102051,-0.996094,0.0961914
1541872978751917,0.130371,-0.991211,0.125
1541872978765946,0.124512,-0.99707,0.134766
1541872978786964,0.117676,-1.0083,0.135254
1541872978789962,0.115234,-1.01758,0.132813
1541872978840008,0.114258,-1.00977,0.14502
1541872978841990,0.109375,-1.00049,0.139648
1541872978863009,0.108887,-1.01465,0.134766
1541872978884032,0.111328,-1.01367,0.129883
1541872978915069,0.115723,-1.00586,0.117188
1541872978937123,0.114258,-1.00781,0.115723
1541872978940088,0.0986328,-1.01318,0.108398
1541872978991113,0.116211,-0.998047,0.11377
1541872979013150,0.137695,-1.00293,0.117676
1541872979085210,0.114746,-1.01904,0.126465
1541872979141257,0.102539,-1.01318,0.115723
1541872979163276,0.0991211,-1.00146,0.112793
1541872979236369,0.11084,-1.00732,0.148926
1541872979290359,0.178711,-0.998047,0.166992
1541872979310395,0.114746,-1.05029,0.152832
1541872979418465,0.109375,-1.02588,0.127441
1541872979419466,0.0913086,-0.973633,0.135254
1541872979441504,0.0932617,-0.980957,0.141113
1541872979514601,0.0751953,-0.989258,0.181152
1541872979516557,0.0600586,-0.995605,0.187012
1541872979567599,0.0493164,-0.998535,0.17334
1541872979569609,0.0634766,-0.98877,0.17627
1541872979591666,0.0454102,-0.993652,0.179199
1541872979592610,0.0375977,-0.990234,0.166504
1541872979618652,0.0317383,-0.977539,0.174316
1541872979620653,0.0302734,-0.98291,0.165039
1541872979634673,0.0102539,-0.962402,0.164063
1541872979657663,0.0209961,-0.941895,0.182617
1541872979671674,0.0327148,-0.933105,0.195313
1541872979692746,0.0395508,-0.931152,0.20752
1541872979708718,0.0410156,-0.917969,0.213867
1541872979747752,0.043457,-0.921875,0.22998
1541872979768774,0.0307617,-0.925293,0.22998
1541872979771776,0.000488281,-0.88916,0.209961
1541872979791793,0.0112305,-0.884766,0.21875
1541872979890874,0.0224609,-0.87207,0.203613
1541872979919898,0.0180664,-0.836426,0.208496
1541872979942897,-0.0107422,-0.724121,0.118652
1541872979986953,-0.0375977,-0.71875,0.100098
1541872979989951,-0.0258789,-0.762695,0.0727539
1541872979995953,0.0117188,-0.796875,0.0444336
1541872979999963,0.0683594,-0.809082,0.0146484
1541872980014967,0.114746,-0.783691,0.0283203
1541872980037995,0.116211,-0.74707,0.0483398
1541872980053995,0.0854492,-0.79541,0.0512695
1541872980077028,0.046875,-0.890137,0.0268555
1541872980092039,0.0883789,-1.12842,-0.0209961
1541872980114040,0.161133,-1.44287,-0.104004
1541872980135075,0.255371,-1.70557,-0.202637
1541872980152089,0.362793,-1.78271,-0.229492
1541872980188120,0.367676,-1.73682,-0.190918
1541872980196120,0.327637,-1.68604,-0.149414
1541872980212138,0.27002,-1.65869,-0.113281
1541872980250173,0.214355,-1.50391,-0.0791016
1541872980263208,0.116211,-1.26318,-0.034668
1541872980279174,0.0205078,-1.05762,0.0253906
1541872980300211,-0.0605469,-0.938965,0.0551758
1541872980340279,-0.0776367,-0.876953,0.0625
1541872980342246,-0.0551758,-0.836914,0.0629883
1541872980356254,-0.0292969,-0.793457,0.0395508
1541872980375308,-0.0268555,-0.789063,-0.00292969
1541872980392279,-0.0317383,-0.807617,-0.0410156
1541872980414305,-0.0170898,-0.844238,-0.0795898
1541872980452336,0.00732422,-0.898438,-0.0805664
1541872980454333,0.0253906,-0.987305,-0.0810547
1541872980474354,0.0405273,-1.08545,-0.0703125
1541872980496409,0.0522461,-1.15869,-0.0712891
1541872980526411,0.0546875,-1.15625,-0.0615234
1541872980550427,0.0546875,-1.15186,-0.0415039
1541872980555421,0.0351563,-1.14697,-0.0239258
1541872980577439,0.019043,-1.11084,0.00830078
1541872980624478,-0.00488281,-1.09277,0.0332031
1541872980627481,-0.0263672,-1.03564,0.0556641
1541872980633481,-0.0517578,-0.978027,0.0546875
1541872980654521,-0.0615234,-1.01758,0.0332031
1541872980676507,-0.0854492,-1.03467,0.0131836
1541872980699539,-0.0771484,-1.00684,0.0141602
1541872980728563,-0.0795898,-0.959473,-0.000488281
1541872980753566,-0.0620117,-0.96875,-0.0214844
1541872980759586,-0.0292969,-0.991699,-0.015625
1541872980774637,0.000488281,-0.983887,-0.0126953
1541872980804629,-0.0361328,-1.01172,-0.0170898
1541872980826625,-0.0297852,-1.04102,-0.0146484
1541872980834654,-0.0253906,-1.03906,-0.0175781
1541872980856661,-0.0249023,-1.03369,-0.0126953
1541872980879729,-0.0512695,-1.02881,-0.015625
1541872980901687,-0.0556641,-1.02246,-0.0170898
1541872980939738,-0.0371094,-1.02393,-0.00634766
1541872980942721,-0.0410156,-1.02295,0.0185547
1541872980955732,-0.0512695,-0.97998,0.0375977
1541872980976759,-0.0253906,-0.914063,0.0302734
1541872981005789,-0.0336914,-0.963379,0.00683594
1541872981014797,-0.0581055,-1.00098,0.0102539
1541872981036800,-0.0766602,-1.00928,0.019043
1541872981057835,-0.0585938,-0.976074,0.0219727
1541872981081835,-0.0517578,-0.955566,0.0112305
1541872981103854,-0.0449219,-0.919922,0.015625
1541872981117920,-0.0507813,-0.896484,0.0180664
1541872981135888,-0.0712891,-0.88916,0.0224609
1541872981156899,-0.0869141,-0.879395,0.0283203
1541872981177934,-0.0922852,-0.886719,0.0214844
1541872981193947,-0.0849609,-0.881348,0.015625
1541872981216967,-0.0820313,-0.864258,0.0209961
1541872981238020,-0.106934,-0.88623,0.0102539
1541872981253988,-0.103027,-0.888184,0.0209961
1541872981277032,-0.0825195,-0.894531,0.0366211
1541872981298028,-0.0766602,-0.910645,0.0493164
1541872981314043,-0.0629883,-0.905273,0.0595703
1541872981320051,-0.0507813,-0.922852,0.0849609
1541872981342069,-0.0463867,-0.937988,0.109375
1541872981368126,-0.0351563,-0.971191,0.147461
1541872981396114,-0.0234375,-1.04102,0.15625
1541872981402102,0.00244141,-1.12598,0.165527
1541872981442188,0.0351563,-1.22119,0.161133
1541872981444136,0.0996094,-1.18604,0.171875
1541872981464150,0.132324,-1.23389,0.221191
1541872981488171,0.165039,-1.43506,0.242188
1541872981500196,0.251953,-1.46289,0.240234
1541872981530221,0.34668,-1.44922,0.24707
1541872981560249,0.321777,-1.29932,0.275391
1541872981586257,0.255371,-1.13672,0.242188
1541872981591275,0.179688,-1,0.188477
1541872981613293,0.136719,-0.966797,0.135742
1541872981636348,0.111816,-0.987793,0.0908203
1541872981642317,0.121094,-0.996582,0.0307617
1541872981667331,0.135742,-0.952637,0.0371094
1541872981687354,0.154297,-0.938965,0.0795898
1541872981702347,0.168945,-0.953125,0.121582
1541872981724384,0.179688,-0.945313,0.148926
1541872981739396,0.188477,-0.930664,0.166016
1541872981780411,0.199219,-0.950195,0.181641
1541872981787418,0.197754,-0.980957,0.173828
1541872981799429,0.209961,-1.00732,0.163574
1541872981822465,0.208008,-1.00146,0.171875
1541872981840461,0.203613,-0.968262,0.172852
1541872981859531,0.17627,-0.960938,0.179688
1541872981882514,0.152832,-0.970215,0.168945
1541872981907515,0.159668,-0.992188,0.157227
1541872981919581,0.163574,-1,0.149902
1541872981942564,0.164063,-1.00244,0.148438
1541872981960579,0.162598,-0.989258,0.161133
1541872981979595,0.181641,-0.962891,0.174805
1541872982002614,0.143555,-0.968262,0.181152
1541872982020629,0.145996,-0.937988,0.187012
1541872982039644,0.130371,-0.95459,0.206543
1541872982062646,0.103027,-0.972656,0.214844
1541872982080669,0.097168,-0.973145,0.213379
1541872982099695,0.109863,-0.967285,0.221191
1541872982122714,0.0981445,-0.969727,0.211426
1541872982140718,0.110352,-0.941895,0.215332
1541872982159742,0.0805664,-0.931152,0.200195
1541872982182762,0.0737305,-0.94873,0.197266
1541872982200758,0.0737305,-0.921387,0.189941
1541872982221774,0.0673828,-0.927734,0.191895
1541872982242803,0.0600586,-0.940918,0.19043
1541872982259825,0.0605469,-0.938477,0.203613
1541872982279878,0.0625,-0.937988,0.209961
1541872982301860,0.0756836,-0.931641,0.210449
1541872982319870,0.0732422,-0.938965,0.206543
1541872982340892,0.0834961,-0.927734,0.19873
1541872982361910,0.102539,-0.933594,0.208496
1541872982385924,0.112793,-0.934082,0.219727
1541872982400936,0.0952148,-0.94043,0.219238
1541872982421959,0.100586,-0.941406,0.212891
1541872982439956,0.101074,-0.945313,0.214844
1541872982460988,0.0883789,-0.935547,0.206055
1541872982482009,0.0942383,-0.924316,0.204102
1541872982500005,0.0766602,-0.911133,0.205078
1541872982529030,0.0551758,-0.888672,0.200195
1541872982542058,0.0332031,-0.84668,0.196777
1541872982560063,0.0180664,-0.783203,0.181641
1541872982581074,0.00537109,-0.714355,0.182129
1541872982602108,0.00878906,-0.654785,0.174316
1541872982621123,0.000488281,-0.619629,0.155762
1541872982643142,-0.00488281,-0.621094,0.137695
1541872982665155,0.0102539,-0.645996,0.111328
1541872982726206,0.0517578,-0.773438,0.0693359
1541872982755273,0.0976563,-1.05615,0.0249023
1541872982778234,0.0825195,-1.52832,0.0205078
1541872982805275,0.0913086,-1.60352,-0.0136719
1541872982831292,0.0688477,-1.64941,-0.0517578
1541872982852349,0.0419922,-1.8501,-0.0917969
1541872982905357,0.105469,-1.54395,-0.0581055
1541872982907340,0.0327148,-1.33936,0.0112305
1541872982921351,-0.0620117,-1.16309,0.0913086
1541872982927372,-0.165039,-0.864746,0.177246
1541872982973405,-0.195313,-0.827637,0.191406
1541872982980419,-0.194824,-0.800781,0.184082
1541872982993430,-0.161133,-0.807129,0.158203
1541872983009424,-0.117188,-0.821289,0.118164
1541872983030461,-0.0898438,-0.861328,0.0693359
1541872983039459,-0.0634766,-0.935059,0.0273438
1541872983062469,-0.0385742,-0.967773,0.00927734
1541872983084505,-0.0205078,-1.00293,-0.00341797
1541872983107525,-0.0131836,-1.02295,-0.0126953
1541872983128542,-0.0205078,-1.03369,-0.00292969
1541872983143587,-0.0239258,-1.04639,0.0117188
1541872983159558,-0.0419922,-1.03955,0.0239258
1541872983181584,-0.0639648,-1.00879,0.0351563
1541872983202602,-0.097168,-0.973145,0.0488281
1541872983219616,-0.131836,-0.941406,0.0410156
1541872983241635,-0.15918,-0.914063,0.0483398
1541872983262652,-0.182129,-0.880371,0.0673828
1541872983285670,-0.189453,-0.845215,0.0864258
1541872983301664,-0.197754,-0.82373,0.112793
1541872983322737,-0.210938,-0.816406,0.121094
1541872983339698,-0.222168,-0.809082,0.122559
1541872983361714,-0.226074,-0.788086,0.0996094
1541872983382751,-0.208984,-0.775391,0.0957031
1541872983398755,-0.183594,-0.751465,0.0932617
1541872983422784,-0.166992,-0.742188,0.106934
1541872983444801,-0.149902,-0.779785,0.129395
1541872983458795,-0.141602,-0.84375,0.151367
1541872983481829,-0.128906,-0.971191,0.170898
1541872983527905,-0.0883789,-1.11182,0.203125
1541872983529852,-0.0327148,-1.16553,0.216309
1541872983549908,0.0136719,-1.25781,0.212402
1541872983570905,0.090332,-1.3877,0.211426
1541872983579913,0.12793,-1.46582,0.194824
1541872983601911,0.149414,-1.521,0.179199
1541872983624932,0.148926,-1.51563,0.181641
1541872983638962,0.12793,-1.46094,0.179688
1541872983661972,0.104492,-1.37598,0.155762
1541872983684999,0.09375,-1.28369,0.143555
1541872983699011,0.0688477,-1.18896,0.129883
1541872983722021,0.0620117,-1.07568,0.112305
1541872983744031,0.0429688,-0.972656,0.110352
1541872983766047,0.0239258,-0.912598,0.0966797
1541872983782061,0.00537109,-0.868164,0.0800781
1541872983805098,0.00830078,-0.836914,0.0654297
1541872983826108,0.0351563,-0.833008,0.0361328
1541872983842128,0.0551758,-0.836426,0.00488281
1541872983865145,0.0786133,-0.882813,-0.0141602
1541872983886163,0.11377,-0.906738,-0.0380859
1541872983902160,0.147949,-0.923828,-0.0385742
1541872983924197,0.155762,-0.933594,-0.027832
1541872983945215,0.160156,-0.968262,-0.00927734
1541872983970226,0.154297,-1.0083,0.00976563
1541872984000241,0.15332,-1.04492,0.0302734
1541872984005247,0.15625,-1.07715,0.0429688
1541872984029307,0.15332,-1.07324,0.0703125
1541872984044287,0.143555,-1.05371,0.0981445
1541872984067314,0.12793,-1.03809,0.11377
1541872984089330,0.0908203,-1.01807,0.122559
1541872984112369,0.0664063,-0.977051,0.12207
1541872984125363,0.0371094,-0.955078,0.108398
1541872984142372,0.0146484,-0.962402,0.107422
1541872984164393,0.00878906,-1.10156,0.0678711
1541872984185413,0.0649414,-1.19727,-0.00537109
1541872984202426,0.127441,-1.16113,-0.0410156
1541872984224435,0.168945,-1.13428,-0.0678711
1541872984246462,0.182617,-1.06641,-0.0717773
1541872984262477,0.166504,-1.03271,-0.0825195
1541872984284476,0.150391,-1.08691,-0.121094
1541872984305512,0.152344,-1.09619,-0.163086
1541872984329511,0.153809,-1.06104,-0.188477
1541872984344524,0.148438,-1.01563,-0.181152
1541872984365560,0.129883,-0.977051,-0.17334
1541872984389576,0.113281,-0.978516,-0.172363
1541872984412595,0.102539,-0.979492,-0.179688
1541872984425609,0.097168,-0.978027,-0.165039
1541872984441624,0.0874023,-0.976563,-0.164551
1541872984464623,0.0864258,-0.994629,-0.163574
1541872984494648,0.0893555,-0.980469,-0.144531
1541872984502660,0.0952148,-0.98584,-0.123535
1541872984524691,0.0898438,-1.00098,-0.104004
1541872984547694,0.0864258,-1.021,-0.0966797
1541872984561724,0.0722656,-1.02197,-0.0830078
1541872984584740,0.0688477,-1.03027,-0.0698242
1541872984630777,0.0615234,-1.03613,-0.0654297
1541872984635786,0.0615234,-1.04834,-0.0625
1541872984651790,0.0600586,-1.05273,-0.0605469
1541872984674815,0.0595703,-1.04785,-0.0585938
1541872984695870,0.0507813,-1.03271,-0.0541992
1541872984704826,0.043457,-1.02002,-0.043457
1541872984726839,0.0307617,-1.01172,-0.034668
1541872984741871,0.0239258,-1.0083,-0.0239258
1541872984764890,0.0229492,-1.00879,-0.0175781
1541872984786889,0.0166016,-1.00439,-0.019043
1541872984801920,0.0219727,-1.01172,-0.0151367
1541872984824939,0.0195313,-1.02295,-0.0175781
1541872984854963,0.0244141,-1.01904,-0.0205078
1541872984861969,0.0263672,-1.00439,-0.03125
1541872984884988,0.0239258,-0.978027,-0.0288086
1541872984906998,0.0170898,-0.982422,-0.0263672
1541872984930026,0.00634766,-0.993164,-0.0249023
1541872984952024,0.00341797,-0.998535,-0.0307617
1541872984967039,0.000488281,-0.995117,-0.0244141
1541872984982065,-0.00390625,-0.988281,-0.0234375
1541872985005123,-0.00537109,-1,-0.0209961
1541872985035092,-0.00878906,-0.995605,-0.012207
1541872985048158,-0.00341797,-0.999512,-0.00878906
1541872985065138,-0.00683594,-0.994629,-0.0102539
1541872985087136,-0.00683594,-1.00342,-0.0107422
1541872985108172,-0.00341797,-1.0127,-0.00927734
1541872985132173,-0.00341797,-1.01221,-0.00537109
1541872985155205,0.00195313,-1.00781,-0.00244141
1541872985170241,-0.00341797,-1.00244,0.00488281
1541872985185228,-0.0131836,-0.987305,0.0205078
1541872985207235,-0.0175781,-0.98291,0.0336914
1541872985228274,-0.0180664,-0.998047,0.0273438
1541872985252295,-0.00537109,-1.01025,0.0322266
1541872985267298,-0.00341797,-1.00732,0.027832
1541872985288321,0.00146484,-0.99707,0.0375977
1541872985310339,-0.00292969,-0.97998,0.0332031
1541872985327353,-0.0151367,-0.993164,0.0444336
1541872985355375,-0.0161133,-0.999023,0.0449219
1541872985364387,-0.0166016,-1.00586,0.0390625
1541872985394389,-0.0161133,-1.00195,0.0512695
1541872985409425,-0.019043,-0.997559,0.0615234
1541872985432440,-0.0322266,-0.995117,0.0712891
1541872985454439,-0.0341797,-0.990234,0.0791016
1541872985468504,-0.0424805,-0.977051,0.090332
1541872985484465,-0.0429688,-0.966797,0.0908203
1541872985507482,-0.0424805,-0.962891,0.100098
1541872985529501,-0.0419922,-0.94043,0.102051
1541872985552539,-0.046875,-0.890137,0.111328
1541872985574540,-0.0444336,-0.871094,0.118652
1541872985590605,-0.0429688,-0.865234,0.109863
1541872985606578,-0.0390625,-0.847168,0.115234
1541872985627581,-0.019043,-0.898926,0.120605
1541872985649599,0.00390625,-0.956055,0.117676
1541872985670671,0.0419922,-0.986328,0.120117
1541872985687650,0.0913086,-1.03662,0.110352
1541872985709651,0.125488,-1.07178,0.119141
1541872985730685,0.154785,-1.11475,0.134766
1541872985747699,0.187012,-1.20508,0.138672
1541872985769699,0.227539,-1.26172,0.133789
1541872985782728,0.259766,-1.30371,0.120117
1541872985797740,0.252441,-1.29443,0.11377
1541872985812755,0.227051,-1.26074,0.128418
1541872985837771,0.192383,-1.22021,0.144043
1541872985869802,0.150879,-1.14941,0.155273
1541872985873797,0.126953,-1.06836,0.164551
1541872985894820,0.0888672,-1.01221,0.166016
1541872985918831,0.0698242,-0.947266,0.180176
1541872985932851,0.0581055,-0.907227,0.199707
1541872985954865,0.0546875,-0.875488,0.204102
1541872985972866,0.0615234,-0.850098,0.200684
1541872985995904,0.0712891,-0.848145,0.187012
1541872986023927,0.0908203,-0.842773,0.186035
1541872986029932,0.102539,-0.846191,0.176758
1541872986052951,0.105957,-0.828613,0.180176
1541872986077951,0.120605,-0.783203,0.175781
1541872986098969,0.101563,-0.712891,0.177246
1541872986120006,0.0693359,-0.731445,0.169434
1541872986135019,0.0664063,-0.81543,0.157227
1541872986152033,0.0820313,-0.888184,0.145996
1541872986176048,0.117188,-0.881836,0.120117
1541872986237103,0.12793,-0.797852,0.114258
1541872986251095,0.108398,-0.72168,0.111328
1541872986274133,0.0786133,-0.726074,0.104492
1541872986278136,0.0859375,-0.781738,0.0708008
1541872986293149,0.112793,-0.874023,0.0390625
1541872986323174,0.149902,-1.0293,0.0292969
1541872986332182,0.180664,-1.17236,0.0107422
1541872986356210,0.189453,-1.15967,0.034668
1541872986383222,0.164063,-1.21533,0.0429688
1541872986392211,0.170898,-1.31738,0.0366211
1541872986413245,0.192871,-1.40186,0.0170898
1541872986435265,0.210449,-1.42139,-0.00292969
1541872986453281,0.182617,-1.39795,0.00878906
1541872986472296,0.152832,-1.40625,0.0209961
1541872986495316,0.147461,-1.40967,0.034668
1541872986513330,0.11377,-1.30664,0.0361328
1541872986532381,0.0532227,-1.14453,0.0683594
1541872986555365,-0.00244141,-1.02393,0.114746
1541872986573380,-0.0615234,-0.955566,0.144531
1541872986592395,-0.0761719,-0.924805,0.137695
1541872986615449,-0.0727539,-0.92041,0.107422
1541872986633428,-0.0541992,-0.876953,0.100098
1541872986652444,-0.0307617,-0.841797,0.0878906
1541872986675464,-0.0307617,-0.861328,0.0849609
1541872986697482,-0.0327148,-0.874512,0.0795898
1541872986720500,-0.0263672,-0.875488,0.0751953
1541872986735513,-0.0288086,-0.894531,0.0708008
1541872986753528,-0.0375977,-0.908691,0.0639648
1541872986772543,-0.0366211,-0.908691,0.0649414
1541872986795598,-0.0454102,-0.884766,0.0776367
1541872986813577,-0.0327148,-0.877441,0.0751953
1541872986840599,-0.0112305,-0.914063,0.0864258
1541872986850603,0.00927734,-0.926758,0.0800781
1541872986873609,0.012207,-0.890625,0.074707
1541872986892643,0.0234375,-0.899902,0.0708008
1541872986910648,0.0209961,-0.939453,0.0834961
1541872986933677,0.0332031,-0.952637,0.0966797
1541872986952692,0.0507813,-0.983887,0.116211
1541872986970688,0.0776367,-1.03613,0.137695
1541872986993762,0.0849609,-1.10742,0.155762
1541872987012777,0.116211,-1.21582,0.168457
1541872987035762,0.148926,-1.22363,0.177734
1541872987053758,0.174316,-1.14648,0.187012
1541872987074778,0.147949,-1.21143,0.191895
1541872987095806,0.137695,-1.28809,0.15625
1541872987112824,0.152344,-1.3623,0.114258
1541872987140834,0.213379,-1.40088,0.0810547
1541872987155851,0.237793,-1.29688,0.081543
1541872987172874,0.213867,-1.146,0.113281
1541872987193890,0.165527,-1.04102,0.157227
1541872987217948,0.107422,-0.971191,0.182129
1541872987232917,0.0717773,-0.919922,0.188965
1541872987253976,0.0576172,-0.890137,0.191895
1541872987275959,0.0634766,-0.876953,0.179199
1541872987292966,0.0605469,-0.846191,0.163574
1541872987314007,0.0576172,-0.811523,0.15332
1541872987330002,0.0551758,-0.816406,0.153809
1541872987353003,0.0688477,-0.819824,0.150879
1541872987374020,0.0854492,-0.807129,0.147949
1541872987390052,0.0922852,-0.809082,0.142578
1541872987412112,0.0849609,-0.80127,0.132324
1541872987435090,0.0922852,-0.794922,0.117188
1541872987450102,0.0888672,-0.791992,0.0952148
1541872987472154,0.102051,-0.807617,0.0756836
1541872987495122,0.111328,-0.804688,0.0722656
1541872987516157,0.121094,-0.781738,0.0634766
1541872987532153,0.107422,-0.757813,0.0610352
1541872987555189,0.104492,-0.803711,0.0668945
1541872987577203,0.0942383,-0.917969,0.0556641
1541872987592200,0.0898438,-1.03174,0.0341797
1541872987615238,0.107422,-1.21436,0.027832
1541872987629231,0.135742,-1.4165,-0.0219727
1541872987652255,0.196777,-1.49756,-0.0834961
1541872987675283,0.263184,-1.53125,-0.09375
1541872987689279,0.269531,-1.56787,-0.0942383
1541872987712310,0.255859,-1.56738,-0.0932617
1541872987735320,0.215332,-1.47412,-0.0908203
1541872987763343,0.149414,-1.24463,-0.0288086
1541872987772364,0.0410156,-1.06689,0.0546875
1541872987795386,-0.059082,-0.963379,0.112793
1541872987816439,-0.112305,-0.885254,0.14209
1541872987840459,-0.137207,-0.85498,0.154785
1541872987855432,-0.128418,-0.851563,0.146973
1541872987876453,-0.121582,-0.852539,0.126465
1541872987900473,-0.118164,-0.871094,0.0898438
1541872987915486,-0.0708008,-0.874023,0.0537109
1541872987944509,-0.0625,-0.927246,0.0356445
1541872987952501,-0.065918,-0.973633,0.0195313
1541872987982522,-0.0556641,-0.961426,0.0200195
1541872987996547,-0.0595703,-0.929688,0.0458984
1541872988012565,-0.0825195,-0.899414,0.0678711
1541872988035581,-0.0864258,-0.890625,0.0786133
1541872988056592,-0.09375,-0.869629,0.0878906
1541872988072615,-0.0859375,-0.846191,0.0869141
1541872988095621,-0.0869141,-0.851074,0.0756836
1541872988123657,-0.0712891,-0.850098,0.0693359
1541872988132665,-0.0629883,-0.847168,0.0791016
1541872988155684,-0.0625,-0.855469,0.0795898
1541872988177702,-0.0498047,-0.917969,0.097168
1541872988215732,-0.00488281,-0.96582,0.101563
1541872988217728,0.0249023,-1.03125,0.11377
1541872988235749,0.0415039,-1.10352,0.119629
1541872988251751,0.0600586,-1.19482,0.137207
1541872988274764,0.090332,-1.30029,0.150879
1541872988304787,0.132813,-1.34912,0.170898
1541872988320820,0.151367,-1.35303,0.198242
1541872988342838,0.146484,-1.32813,0.193359
1541872988373856,0.131348,-1.28516,0.182129
1541872988395916,0.103516,-1.27832,0.163574
1541872988397865,0.0996094,-1.24121,0.138184
1541872988423905,0.0888672,-1.18701,0.117188
1541872988447925,0.103516,-1.10742,0.111328
1541872988454910,0.104492,-1.05225,0.101563
1541872988477984,0.0776367,-1.01221,0.116699
1541872988515980,0.0664063,-0.953613,0.126953
1541872988520965,0.081543,-0.943848,0.131836
1541872988537998,0.113281,-0.931641,0.15625
1541872988567032,0.125,-0.92041,0.164063
1541872988577031,0.0952148,-0.932617,0.15332
1541872988605035,0.110352,-0.905762,0.132324
1541872988666136,0.126465,-0.922852,0.12207
1541872988668088,0.128906,-0.952637,0.125
1541872988674111,0.12793,-0.942871,0.128418
1541872988696110,0.116211,-0.892578,0.133789
1541872988701132,0.0874023,-0.817383,0.146973
1541872988734160,0.0327148,-0.77002,0.164551
1541872988739144,-0.00439453,-0.810547,0.145508
1541872988763179,-0.012207,-0.895508,0.133789
1541872988777196,0.0224609,-0.929688,0.116211
1541872988798212,0.0283203,-0.914063,0.111816
1541872988815227,-0.00830078,-0.894531,0.121582
1541872988845248,0.0209961,-0.845703,0.134277
1541872988860260,-0.0112305,-0.86084,0.150391
1541872988875276,-0.0078125,-0.799805,0.138184
1541872988898278,0.0219727,-0.760254,0.107422
1541872988921296,0.0361328,-0.84668,0.0981445
1541872988959326,0.0541992,-0.914551,0.0786133
1541872988963332,0.100098,-1.02197,0.102051
1541872989018395,0.156738,-1.18604,0.0317383
1541872989020386,0.231445,-1.32227,-0.0151367
1541872989034404,0.30957,-1.48584,-0.050293
1541872989047410,0.37207,-1.65088,-0.0756836
1541872989101449,0.441406,-1.73291,-0.14209
1541872989108449,0.461426,-1.6084,-0.115723
1541872989124482,0.396973,-1.2749,-0.0830078
1541872989153489,0.363281,-1.06689,-0.0825195
1541872989160512,0.333984,-0.92041,-0.0400391
1541872989188535,0.30127,-0.84375,-0.0229492
1541872989198542,0.177734,-0.75293,-0.00683594
1541872989227557,0.157715,-0.702637,-0.0146484
1541872989234568,0.17627,-0.68457,-0.0341797
1541872989257582,0.145508,-0.731934,-0.0292969
1541872989287596,0.169434,-0.785645,-0.0361328
1541872989294621,0.167969,-0.820801,-0.0239258
1541872989317631,0.229004,-0.905273,-0.0234375
1541872989363670,0.30127,-0.98584,-0.0229492
1541872989378716,0.36377,-1.05762,-0.0327148
1541872989380689,0.386719,-1.11084,-0.0263672
1541872989439732,0.455566,-1.12744,0.0268555
1541872989506796,0.419434,-1.14502,0.027832
1541872989525849,0.527832,-1.37842,0.0366211
1541872989537813,0.336426,-0.693359,0.254395
1541872989603857,0.290527,-0.796387,0.254883
1541872989625932,0.317383,-0.932617,0.215332
1541872989630899,0.376465,-0.956055,0.0898438
1541872989640911,0.37207,-0.9375,0.10498
1541872989660924,0.347168,-0.938477,0.102051
1541872989690948,0.315918,-0.910645,0.130371
1541872989700957,0.257324,-0.892578,0.148926
1541872989722974,0.307129,-0.807129,0.167969
1541872989737987,0.37207,-0.829102,0.152832
1541872989774017,0.371094,-0.887695,0.130859
1541872989789028,0.397949,-0.943359,0.12207
1541872989798037,0.415039,-0.881348,0.142578
1541872989820045,0.445313,-0.736816,0.148926
1541872989866129,0.436523,-0.716309,0.160645
1541872989868076,0.415039,-0.72998,0.136719
1541872989934144,0.342773,-0.761719,0.141113
1541872990001200,0.362305,-0.696777,0.170898
1541872990015251,0.44873,-0.625488,0.210938
1541872990037234,1.14404,-1.05566,-0.0395508
1541872990040235,1.17139,-0.92334,-0.0908203
1541872990061253,1.15576,-0.439941,-0.0737305
1541872990113296,1.11377,-0.261719,-0.046875
1541872990116281,1.15381,-0.264648,-0.0712891
1541872990122285,1.26563,-0.330078,-0.181152
1541872990142319,1.41406,-0.191406,-0.177246
1541872990172345,1.30762,-0.074707,-0.0400391
1541872990211377,1.21387,-0.0581055,0.124512
1541872990218385,1.05811,-0.154785,0.168457
1541872990220380,1.0127,-0.137207,0.0927734
1541872990241386,1.03467,-0.0732422,0.059082
1541872990271407,0.989746,-0.050293,0.0429688
1541872990471586,0.94873,-0.09375,0.0571289
1541872990517665,0.933594,-0.175781,0.0268555
1541872990750857,0.955566,-0.214355,0
1541872990766835,1.45605,-0.535645,0.0595703
1541872990804847,0.62207,-0.430664,0.301758
1541872990818858,0.70166,-0.337402,0.305176
1541872990847902,0.785645,-0.320313,0.336914
1541872990850885,0.795898,-0.312988,0.336914
1541872990869920,0.804688,-0.271973,0.312012
1541872990872922,0.840332,-0.247559,0.293457
1541872990900941,0.80127,-0.206055,0.255859
1541872990921962,0.751953,-0.240723,0.241211
1541872990935973,0.731445,-0.319824,0.266602
1541872990970003,0.740234,-0.343262,0.28125
1541872990975005,0.788574,-0.208496,0.220215
1541872990996059,0.869629,-0.371094,0.194824
1541872991052066,0.988281,-0.61377,0.172363
1541872991066117,1.18311,-0.632813,0.11377
1541872991072082,1.58887,-0.47998,-0.0302734
1541872991097109,1.27148,-0.276367,0.105957
1541872991157147,1.08887,-0.230469,0.162598
1541872991328288,0.97168,-0.338379,0.12207
1541872991402372,0.867188,-0.516602,0.0493164
1541872991839762,0.840332,-0.32373,-0.0698242
1541872991846705,1.05713,-0.172852,0.00976563
1541872991868742,0.83252,-0.298828,0.280762
1541872991870724,0.772949,-0.345703,0.275879
1541872991891742,0.713379,-0.440918,0.276855
1541872991921786,0.676758,-0.452637,0.237793
1541872991943805,0.678223,-0.382324,0.200684
1541872991945787,0.672363,-0.313965,0.234863
1541872991981818,0.720215,-0.28125,0.145508
1541872991996829,0.73291,-0.435547,0.154785
1541872992024867,0.806641,-0.491699,0.178223
1541872992040884,0.916504,-0.406738,0.214844
1541872992055892,1.03467,-0.335938,0.21582
1541872992069946,1.15186,-0.431152,0.23291
1541872992091926,1.39697,-0.45166,0.190918
1541872992115928,1.46143,-0.311523,0.137207
1541872992146974,1.29297,-0.205566,0.135742
1541872992166988,1.08984,-0.149902,0.123535
