timestamp,emg1,emg2,emg3,emg4,emg5,emg6,emg7,emg8
1541872950328508,1,11,-7,-9,1,0,0,-2
1541872950328508,-1,2,10,-3,-3,-3,-1,-1
1541872950329507,1,-27,-11,-10,-1,-1,-1,-7
1541872950329507,1,20,5,20,3,0,6,3
1541872950330509,-5,-2,2,-20,-4,0,-18,-3
1541872950330509,-5,-6,-16,-42,-2,0,4,2
1541872950330509,2,2,9,45,-3,-1,-3,2
1541872950330509,8,-1,-15,-36,-5,-3,13,1
1541872950337515,-16,-21,8,22,4,2,17,1
1541872950337515,-15,4,6,14,1,-1,-20,-6
1541872950341517,5,39,1,-10,3,0,-12,2
1541872950341517,-3,-13,-8,5,2,2,8,-2
1541872950351517,5,8,4,-13,-6,-3,0,8
1541872950351517,18,-13,-13,16,0,2,4,5
1541872950365543,9,3,8,-9,-4,-4,4,-3
1541872950365543,2,-3,6,11,5,0,-14,-5
1541872950371551,-3,7,2,-10,0,0,-2,0
1541872950371551,10,10,-19,-32,-9,-4,-2,-1
1541872950396572,1,-2,10,12,1,1,-1,1
1541872950396572,-5,-3,-7,14,-3,-1,-4,1
1541872950397573,0,-43,-11,4,-1,-3,-1,-4
1541872950397573,-2,6,2,34,3,-1,5,-1
1541872950434591,18,0,5,-10,-2,-1,8,3
1541872950434591,-5,-5,-1,-4,2,1,-1,-3
1541872950434591,-15,-4,-17,-11,-3,-1,-4,-2
1541872950434591,40,5,10,31,-2,-3,-1,0
1541872950435585,-12,8,3,-18,0,-1,-15,-4
1541872950435585,38,1,2,9,-1,-1,29,3
1541872950440609,-44,17,5,-15,2,-2,-37,-6
1541872950440609,-1,4,-8,-2,-5,-1,5,2
1541872950446615,-6,-4,-9,-6,1,-1,-5,6
1541872950446615,11,-1,7,2,-8,-5,-2,0
1541872950455622,10,-6,0,15,2,-1,3,3
1541872950455622,6,-10,-1,2,1,-1,-1,-9
1541872950461625,-4,-16,-10,-29,-5,-1,2,4
1541872950461625,-15,-6,-6,27,4,-1,-9,-2
1541872950485641,14,-1,-6,-18,-4,0,10,-2
1541872950485641,-14,-5,-1,-26,-8,-2,-7,1
1541872950486628,4,-8,-13,11,3,-1,2,-5
1541872950486628,-7,11,11,-3,1,0,-4,1
1541872950506663,6,-7,-6,10,1,-1,7,2
1541872950506663,-5,-6,-12,-4,0,1,0,1
1541872950507643,-10,6,21,30,0,-1,-2,-6
1541872950507643,9,-4,-13,-34,-3,0,0,1
1541872950521676,-19,12,22,14,4,-1,-5,-5
1541872950521676,-12,-4,-7,-21,-6,-2,-6,0
1541872950528681,9,10,4,10,-2,-2,20,-1
1541872950528681,-2,1,-7,-10,5,1,-18,-2
1541872950544694,13,-7,-2,8,-3,-1,16,-1
1541872950544694,-5,1,-7,11,1,-2,-12,-6
1541872950545695,-2,4,7,9,-2,0,-2,0
1541872950545695,-4,43,5,15,3,2,6,-1
1541872950566712,15,-1,-10,-23,-3,-1,3,1
1541872950566712,-44,-1,25,-29,-8,-3,-4,-4
1541872950567695,13,-3,-15,12,1,-1,-2,3
1541872950567695,-28,-14,21,11,-3,-2,-5,-7
1541872950581725,9,-7,-22,6,0,0,-2,-1
1541872950581725,5,16,13,22,5,1,6,4
1541872950588730,11,-7,-5,-24,-5,-1,-6,-4
1541872950588730,-25,-12,-1,0,-2,0,-2,-1
1541872950604726,2,-1,-12,-24,-2,1,4,1
1541872950604726,-2,-20,-11,6,5,1,1,-3
1541872950605745,-2,-3,-2,-12,-1,0,5,-5
1541872950605745,8,-4,1,3,0,-3,-17,5
1541872950626757,-11,2,14,1,-4,-2,-2,-3
1541872950626757,3,2,-13,8,-1,0,22,5
1541872950627744,3,-7,7,2,2,2,-3,5
1541872950627744,-1,25,3,-5,-2,0,12,-1
1541872950641775,-7,-7,-15,-16,-2,-2,-8,0
1541872950641775,35,-11,-8,26,1,0,-2,-5
1541872950648781,-10,31,-6,-59,-8,0,-6,-2
1541872950648781,-9,-24,10,12,-2,-2,9,1
1541872950664793,7,1,7,7,-1,-1,-23,-2
1541872950664793,2,0,3,4,1,0,-1,-2
1541872950665793,-12,-9,0,22,1,-1,-1,0
1541872950665793,27,-4,-15,-22,-2,2,-1,-6
1541872950686811,-4,7,11,25,5,-1,9,-1
1541872950686811,-1,-9,-5,-14,-3,0,-4,1
1541872950687803,-10,-4,-2,-10,0,0,-4,-2
1541872950687803,-3,-6,-10,20,0,0,1,-1
1541872950701818,8,-5,1,6,0,0,0,5
1541872950701818,-2,5,7,0,-1,-1,-9,-1
1541872950708830,7,-6,-1,24,0,0,16,1
1541872950708830,-7,-6,-9,-18,0,1,-12,-2
1541872950724843,-1,-10,3,-2,-2,0,-4,2
1541872950724843,-12,-13,-1,-15,-1,0,-4,-3
1541872950725838,14,15,-13,-6,-7,-1,6,3
1541872950725838,9,-15,6,11,-3,-2,14,0
1541872950746862,-13,-6,-11,-19,-2,1,5,-6
1541872950746862,11,-1,9,-27,-7,-6,-18,2
1541872950747862,-33,-16,1,17,4,0,5,-15
1541872950747862,3,-3,-6,2,1,0,-10,3
1541872950761859,4,11,10,16,0,1,7,0
1541872950761859,-8,-1,-8,-26,0,2,11,3
1541872950768880,2,-7,-27,-7,-5,-3,-13,1
1541872950768880,-6,-8,8,1,-2,-2,-11,-2
1541872950784892,-7,-7,6,4,1,2,-5,-4
1541872950784892,-4,14,-14,1,2,0,4,-1
1541872950784892,3,-7,13,5,0,-1,-5,-1
1541872950784892,-10,-9,-16,5,-1,0,1,-2
1541872950806910,15,-1,-2,-41,-4,1,4,6
1541872950806910,-9,5,7,32,1,-1,-10,-3
1541872950807894,-4,-7,7,17,2,-3,-8,-1
1541872950807894,3,32,-8,-35,-6,-2,8,-1
1541872950820925,-10,11,26,24,0,-2,-3,-4
1541872950820925,9,12,-4,-3,1,3,13,4
1541872950828912,-12,-9,-6,-7,0,0,-4,-3
1541872950828912,21,0,10,20,-1,-3,-5,2
1541872950844976,-23,-3,-14,-7,-1,-3,-2,-3
1541872950844976,7,-6,-13,-9,-3,-4,4,-1
1541872950844976,22,1,-2,-5,2,-1,-9,1
1541872950844976,-18,-3,-5,-8,-2,0,-16,-6
1541872950866995,15,6,7,13,2,0,-2,2
1541872950866995,-23,-6,12,17,-1,-1,-2,-6
1541872950867954,2,-4,1,4,1,-2,-1,1
1541872950867954,15,-3,-14,-14,-4,-1,10,1
1541872950880971,-5,-1,15,36,1,-2,-16,-4
1541872950880971,8,-1,-13,-35,2,3,12,4
1541872950888977,-3,5,8,-1,-1,0,0,-1
1541872950888977,-1,-1,3,1,-3,-1,3,-1
1541872950904987,-8,-7,-9,25,0,-1,6,-1
1541872950904987,3,0,9,-4,-3,0,-8,-5
1541872950904987,3,2,-1,-38,1,-1,-3,-2
1541872950904987,-7,-4,6,24,-4,-3,-3,-4
1541872950926992,-3,4,-4,-5,0,0,4,0
1541872950926992,12,40,11,-18,-2,-3,-5,-1
1541872950927998,4,12,10,21,0,0,2,5
1541872950927998,-16,-3,3,12,2,-1,-1,3
1541872950950009,13,3,-7,-25,-5,-2,1,-3
1541872950950009,0,-13,2,13,-1,1,0,-6
1541872950950009,-9,-5,-6,-8,2,0,-2,-2
1541872950950009,9,1,7,-3,1,-1,1,4
1541872950964040,0,3,14,-9,-4,-2,1,-1
1541872950964040,2,-4,-36,9,-4,-2,-5,0
1541872950972047,13,-2,1,-10,-3,3,0,-1
1541872950972047,-34,-14,-2,-9,-1,-1,-2,-7
1541872950987059,13,-6,-8,-15,2,1,2,-2
1541872950987059,-11,-9,11,-13,-2,0,-1,-1
1541872950988061,4,-21,6,36,3,-1,1,6
1541872950988061,7,-3,-1,36,6,0,0,5
1541872951009078,-2,11,-10,-62,-8,-2,1,-13
1541872951009078,-13,2,-1,31,5,0,-1,3
1541872951010059,-2,-5,-6,-4,-7,-4,-5,-7
1541872951010059,7,2,7,-27,-2,3,1,3
1541872951024090,7,-8,-18,10,2,-1,2,6
1541872951024090,-6,-11,14,21,2,-1,-3,-8
1541872951025080,8,15,-7,-6,-1,-2,1,-2
1541872951025080,-29,-6,2,18,3,0,1,-5
1541872951047144,3,1,-3,-5,-4,-2,-2,4
1541872951047144,1,3,1,-22,-5,-1,7,-3
1541872951048127,-11,-3,2,21,3,0,-14,0
1541872951048127,23,11,-8,-55,-9,-3,-4,-1
1541872951069126,-16,-10,0,16,5,3,11,1
1541872951069126,7,-13,0,4,0,-1,-8,3
1541872951070109,-16,-11,2,-8,-6,-1,5,-5
1541872951070109,7,-7,-7,-22,-4,-3,0,8
1541872951084139,33,14,-13,5,-4,-2,-11,-14
1541872951084139,-41,12,14,-2,0,-1,4,-1
1541872951085130,-9,-15,-6,6,0,0,1,-1
1541872951085130,1,-3,-15,-3,6,3,0,-2
1541872951107142,-7,-4,4,19,-1,-1,6,5
1541872951107142,14,2,-5,-2,1,0,-3,1
1541872951108143,5,8,-9,-29,-6,0,1,3
1541872951108143,-23,13,18,19,1,-4,-3,-16
1541872951129212,8,0,-4,-8,2,-1,-9,13
1541872951129212,20,1,-15,-1,-3,-1,9,6
1541872951130176,0,-4,-2,19,-2,-2,0,-2
1541872951130176,6,-6,-28,-50,0,2,5,1
1541872951144224,-12,-14,24,36,-3,-3,-5,-7
1541872951144224,-16,-7,8,33,5,-1,2,0
1541872951145185,27,7,-12,-21,-4,-2,-26,0
1541872951145185,-8,-6,-15,-12,-4,-3,19,-9
1541872951167202,-5,-1,-7,-13,-1,0,2,-2
1541872951167202,-2,-9,-11,-11,3,1,-4,-1
1541872951168199,-3,3,15,12,-2,-1,12,0
1541872951168199,8,-9,2,-5,0,-1,-11,-2
1541872951189225,2,8,3,23,2,-2,-4,2
1541872951189225,7,8,-1,-47,-5,-3,7,0
1541872951190217,-12,9,5,19,-2,-3,-4,-8
1541872951190217,13,-9,18,26,1,0,-10,10
1541872951204237,-4,0,-33,-41,-2,0,12,8
1541872951204237,5,1,0,37,3,3,-3,1
1541872951205219,-8,1,-1,-17,1,-2,13,-8
1541872951205219,-3,-8,0,39,3,0,-30,-6
1541872951227253,5,-12,31,-31,-5,2,6,-1
1541872951227253,-14,-3,-2,6,4,3,4,2
1541872951228292,0,3,-1,-27,-2,0,5,1
1541872951228292,9,7,-7,19,-4,-4,15,8
1541872951249275,29,-4,1,-11,3,1,-5,-9
1541872951249275,1,-2,-3,-8,-12,-6,-11,0
1541872951250256,0,6,9,23,7,2,6,7
1541872951250256,13,1,3,-27,-8,-3,-7,-6
1541872951264270,-18,-8,-10,-1,1,1,1,4
1541872951264270,-8,3,16,-5,2,2,1,-10
1541872951265269,-4,-4,-12,5,-1,1,-5,1
1541872951265269,11,11,3,-3,-2,-1,3,3
1541872951287341,-20,2,0,19,1,-3,-4,-3
1541872951287341,19,-9,5,5,-2,-3,-1,1
1541872951288342,-8,-11,-13,-11,-1,0,-4,-3
1541872951288342,-11,-2,4,-7,4,4,2,-2
1541872951309325,5,-3,1,-12,-4,-4,1,1
1541872951309325,14,2,7,30,-1,-3,-7,2
1541872951310307,5,5,-4,-38,4,0,8,4
1541872951310307,-24,2,-16,49,-5,-5,-14,-14
1541872951324318,25,0,-8,18,2,-2,-2,10
1541872951324318,21,-20,-2,-54,-3,-1,-3,-5
1541872951325319,-16,20,-10,-7,-6,-3,-6,-4
1541872951325319,-18,-6,15,-3,3,3,11,-6
1541872951347391,3,0,5,-9,1,1,-2,-4
1541872951347391,5,4,-12,9,-6,-3,-9,-7
1541872951348357,2,-6,6,38,4,-1,-4,7
1541872951348357,22,8,15,-52,-8,0,9,6
1541872951369375,-50,16,-10,54,2,-2,-4,-15
1541872951369375,-3,19,-10,-25,2,4,6,-2
1541872951370365,-13,-15,-18,-19,-7,-3,-7,-6
1541872951370365,-3,-4,-4,13,1,0,-4,1
1541872951384386,1,7,8,-4,-2,0,-3,0
1541872951384386,-15,1,6,15,5,-1,0,2
1541872951385387,-6,-18,-7,15,-1,0,0,3
1541872951385387,10,18,-14,-29,0,0,-2,3
1541872951406440,-2,-29,12,0,-5,-3,3,1
1541872951406440,20,1,-11,5,0,-2,-4,-8
1541872951414447,-2,3,20,20,2,0,1,3
1541872951414447,-4,-14,-14,-20,2,-1,3,0
1541872951429424,6,8,-7,-29,-9,-4,3,-3
1541872951429424,-43,-9,1,16,5,3,4,-2
1541872951430411,17,11,9,-5,1,0,-12,6
1541872951430411,-1,-3,-4,8,2,0,9,3
1541872951452425,-8,7,15,11,-3,-1,0,-1
1541872951452425,-2,-7,-12,-12,-5,-3,-4,10
1541872951453423,-7,-20,10,17,3,-2,-16,-21
1541872951453423,-1,-5,2,-16,1,0,25,4
1541872951475499,21,-6,-6,6,-2,-2,-8,4
1541872951475499,-4,3,10,-3,2,2,6,-2
1541872951476497,-3,3,8,1,1,-2,-5,3
1541872951476497,0,-1,2,21,3,0,-14,-2
1541872951489472,-7,-4,-2,6,0,-2,1,-8
1541872951489472,2,-12,-20,-40,-10,-4,-6,6
1541872951490474,15,25,9,-1,-2,0,8,2
1541872951490474,-15,-10,7,8,6,5,-2,-3
1541872951512487,-7,-5,3,56,6,1,2,1
1541872951512487,-3,10,-28,-80,-16,-6,-6,-1
1541872951513473,0,-2,-5,-31,-7,-3,3,0
1541872951513473,1,8,-8,24,0,-4,-2,-4
1541872951535546,0,-4,-5,-9,1,1,-5,0
1541872951535546,-21,28,16,46,7,3,1,-1
1541872951536549,3,3,-4,-15,-2,2,12,1
1541872951536549,-2,-11,-3,8,0,-1,-14,-2
1541872951549558,8,3,10,-14,0,0,-2,-3
1541872951549558,-20,-13,-23,28,-1,-5,-3,2
1541872951550519,-13,0,0,-9,-1,1,5,-9
1541872951550519,10,15,0,12,2,2,-4,5
1541872951572541,-2,2,2,-22,-3,-1,8,4
1541872951572541,15,-5,-8,-31,-6,-3,-18,17
1541872951573523,3,-16,13,23,5,2,11,5
1541872951573523,7,-9,-11,-5,-4,-4,-16,-5
1541872951595596,1,0,-13,-18,-7,-1,2,-4
1541872951595596,-6,-11,-6,-10,-1,0,5,-3
1541872951596557,7,3,-5,3,-3,-3,-3,0
1541872951596557,-15,-5,0,-12,-3,-3,3,-4
1541872951609571,9,6,2,-22,0,3,0,7
1541872951609571,4,1,23,48,4,-1,-2,-8
1541872951610573,14,2,-9,-1,-1,-2,-2,1
1541872951610573,15,8,2,-7,-3,1,3,1
1541872951632591,-32,-29,-24,-1,-1,-3,-8,-7
1541872951632591,7,-2,18,47,10,2,3,-2
1541872951633578,-8,-7,-23,-72,-20,-4,-2,-1
1541872951633578,-6,-6,8,3,1,-1,-1,1
1541872951655610,-10,-7,-1,-11,-2,-2,-1,2
1541872951655610,18,3,-11,-9,2,3,2,-8
1541872951656599,-11,-4,-7,31,7,2,0,-1
1541872951656599,2,-2,0,-9,0,1,-2,1
1541872951669603,6,14,21,20,0,-1,-1,-2
1541872951669603,0,4,13,-24,-1,0,3,4
1541872951670603,3,5,4,15,2,0,-2,-3
1541872951670603,-40,3,-1,-26,-7,-3,1,-4
1541872951692622,3,-3,-16,9,3,1,1,-7
1541872951692622,-11,-4,5,-19,2,2,-1,5
1541872951694636,-20,-8,4,20,2,0,0,-1
1541872951694636,13,2,-4,26,-5,-3,2,1
1541872951714640,9,2,-1,-41,-7,-1,-10,-1
1541872951714640,-4,2,-8,-27,-10,-4,-1,-8
1541872951722660,6,-13,-2,55,13,4,1,2
1541872951722660,0,-14,-7,-36,-4,-1,2,-1
1541872951728650,4,22,10,18,-1,-1,0,3
1541872951728650,8,-7,-2,18,1,2,2,-5
1541872951737673,-12,9,1,-9,-2,-3,-5,2
1541872951737673,21,-3,2,49,3,0,1,-3
1541872951752725,-9,-9,-20,-49,-8,-4,-3,0
1541872951752725,13,1,12,3,1,1,1,-1
1541872951754691,-15,-6,12,22,-1,-2,0,-1
1541872951754691,0,21,-15,-32,-6,0,-1,3
1541872951775696,6,3,27,30,7,2,2,-4
1541872951775696,1,6,4,15,1,-3,-3,-1
1541872951776706,-3,0,-12,-36,-8,-4,0,3
1541872951776706,13,3,8,31,9,5,2,-4
1541872951788755,-15,-2,-8,5,5,2,-4,-5
1541872951788755,4,-6,26,17,-5,0,9,3
1541872951797708,1,38,-7,-5,1,1,-7,-3
1541872951797708,-25,-6,-12,-23,-5,-3,-1,-10
1541872951812740,-5,-2,5,45,8,3,11,15
1541872951812740,9,11,-1,-20,-1,-4,-4,-1
1541872951814741,0,-8,0,-3,-7,-4,-3,-4
1541872951814741,-44,4,18,1,1,0,-4,1
1541872951835801,5,-5,-13,-7,3,3,3,-5
1541872951835801,-4,-14,5,14,-1,0,13,0
1541872951836756,-4,-6,-17,-56,-9,-1,-12,-5
1541872951836756,27,-14,4,23,-1,-6,-7,-2
1541872951848805,5,9,-7,2,0,-3,-15,-4
1541872951848805,-14,-11,4,22,4,2,-1,-2
1541872951857774,7,0,2,0,4,1,14,0
1541872951857774,7,1,2,4,-2,1,3,8
1541872951872825,0,-1,-9,-18,-3,-4,-4,-5
1541872951872825,-3,-13,7,22,3,-2,-3,1
1541872951874791,-21,-12,-13,-5,2,0,-3,-3
1541872951874791,3,-14,-6,-32,-9,-5,-2,3
1541872951895791,-3,-5,18,13,2,3,6,-2
1541872951895791,7,6,-5,19,1,0,-4,-2
1541872951896788,-14,-11,12,7,2,0,2,-8
1541872951896788,7,5,3,-36,2,-1,-4,11
1541872951908831,4,-1,-9,46,2,-2,0,-8
1541872951908831,4,9,-16,-61,-9,-1,-3,-2
1541872951917808,6,-2,5,8,-1,-1,-8,-3
1541872951917808,2,4,7,8,-2,-1,5,-4
1541872951932873,-6,3,1,-8,-6,-3,5,5
1541872951932873,13,-4,-7,-24,-2,-1,-15,-6
1541872951934860,9,8,-3,9,1,-1,0,7
1541872951934860,-6,31,0,-9,2,3,0,0
1541872951954853,-10,-7,9,31,-5,0,4,-1
1541872951954853,-12,-6,-12,-33,-8,-3,1,-2
1541872951956853,12,-3,-5,9,0,-2,-2,2
1541872951956853,-3,-5,1,12,3,-2,-9,-7
1541872951968903,-26,-4,-8,-4,0,-2,5,-1
1541872951968903,-2,4,-41,-35,-3,-1,0,-5
1541872951977858,0,4,29,-3,0,1,3,2
1541872951977858,10,0,-16,41,7,0,8,4
1541872951999929,15,-3,7,-62,-12,-5,-19,-2
1541872951999929,-21,-6,19,37,1,-1,7,3
1541872952001890,2,39,-2,7,1,0,3,-5
1541872952001890,7,-2,17,33,4,1,-4,-5
1541872952014889,7,-2,-22,-39,-3,2,1,5
1541872952014889,3,1,-3,23,1,-4,14,-1
1541872952016903,2,-7,3,-21,-3,-3,-23,-1
1541872952016903,-13,1,2,1,5,3,6,-5
1541872952028919,20,-8,3,14,-3,-3,-3,-1
1541872952028919,-22,10,-12,-4,2,0,0,-2
1541872952037906,16,15,16,32,6,-1,-3,-12
1541872952037906,2,-9,12,-51,-10,-2,4,10
1541872952052937,2,-14,-42,-9,3,1,1,-1
1541872952052937,9,-3,9,36,4,3,4,4
1541872952054933,-7,-12,-13,-38,-9,-2,3,-4
1541872952054933,-9,-4,-3,17,-3,-2,-6,-6
1541872952074939,1,8,5,-29,-5,-5,-2,0
1541872952074939,2,11,14,14,5,2,-4,3
1541872952076938,-12,-2,-3,56,5,1,5,0
1541872952076938,18,-6,2,-59,-11,-1,0,-1
1541872952089004,-7,3,-10,21,8,3,-1,2
1541872952089004,-24,-18,-27,-47,-11,-5,-4,-6
1541872952097955,10,-14,1,2,0,-2,-8,1
1541872952097955,-21,-2,-5,5,0,0,-6,5
1541872952113022,18,-1,18,13,1,0,4,-10
1541872952113022,38,-9,40,27,3,0,5,11
1541872952114991,-37,2,-26,-65,-8,0,0,-7
1541872952114991,-18,-11,-19,54,5,-1,3,6
1541872952135004,-24,11,8,-50,-4,0,-7,-6
1541872952135004,15,3,1,27,4,-1,0,1
1541872952136997,-1,-14,-7,-10,-9,-3,4,-7
1541872952136997,-7,-5,-3,2,2,0,-1,-2
1541872952149017,-6,-4,8,45,4,-1,-3,0
1541872952149017,-1,9,4,6,-1,-2,2,-11
1541872952158014,6,-5,-12,-20,-5,-3,11,18
1541872952158014,-16,1,1,7,4,0,-7,-14
1541872952173071,31,1,1,13,4,0,4,8
1541872952173071,-29,-18,-21,-36,-9,-2,-5,0
1541872952174071,8,-9,25,42,11,4,9,0
1541872952174071,1,0,32,-32,-8,-4,1,-6
1541872952195054,-4,-5,-16,18,5,-1,-2,0
1541872952195054,37,4,-20,-41,-9,3,-4,27
1541872952197047,-68,-28,4,3,-2,-7,-12,-26
1541872952197047,17,6,-8,17,-2,0,7,0
1541872952209065,-32,-11,-3,0,4,5,-3,-9
1541872952209065,18,13,1,-26,-2,-1,7,8
1541872952218063,21,6,5,32,6,0,-4,8
1541872952218063,39,12,30,5,-5,-4,7,6
1541872952232121,-11,-9,-26,-13,-6,-5,-23,-10
1541872952232121,-29,-10,-23,17,7,0,-1,-20
1541872952239126,6,-1,-15,-15,-4,4,0,3
1541872952239126,-9,-32,-25,-21,-6,-5,-5,0
1541872952255103,5,8,40,34,1,0,13,3
1541872952255103,-1,9,-19,47,3,-4,-11,-9
1541872952257090,10,-1,1,-53,-8,2,3,5
1541872952257090,-51,-2,-23,8,10,8,5,-11
1541872952269115,74,7,18,-19,-15,-9,-10,26
1541872952269115,-18,-1,12,18,0,-3,-10,-10
1541872952278114,20,-4,0,-7,0,-2,-2,-6
1541872952278114,30,4,-7,22,-2,-2,-8,8
1541872952292134,8,8,2,-36,-2,2,8,9
1541872952292134,1,15,11,11,-2,0,3,11
1541872952300141,-18,-32,-7,-7,-3,-4,-9,-14
1541872952300141,-8,-27,2,-57,-6,-6,-6,-4
1541872952317154,7,-1,-3,-23,-9,-4,-3,23
1541872952317154,15,11,-7,25,7,4,5,-11
1541872952318136,3,-3,-15,-3,-1,-1,5,6
1541872952318136,-7,-2,8,4,-2,-1,-4,-11
1541872952338207,-30,-3,16,22,11,3,-4,0
1541872952338207,-21,-14,-30,-35,-7,-3,10,-2
1541872952339208,9,12,14,12,4,2,4,11
1541872952339208,-26,1,-45,16,4,-3,0,-16
1541872952352184,-5,10,11,-37,-8,-3,0,-14
1541872952352184,-19,-9,24,9,6,0,-5,-5
1541872952359190,22,15,-1,6,1,1,6,33
1541872952359190,17,7,0,15,-4,-7,6,-24
1541872952375202,-17,-13,-14,12,2,3,3,4
1541872952375202,11,-12,3,-16,-5,-4,-5,-17
1541872952377204,-18,4,-1,-8,0,4,2,-6
1541872952377204,6,3,0,24,9,2,-2,11
1541872952398221,10,6,13,-31,-8,-3,1,7
1541872952398221,2,-1,-7,17,4,-1,3,9
1541872952399217,-12,10,5,-22,-6,-3,-9,5
1541872952399217,-20,-7,2,17,-6,0,-4,-7
1541872952412232,-9,11,1,40,8,0,8,8
1541872952412232,19,3,-2,-48,-4,0,-14,-20
1541872952419239,14,14,6,31,0,-3,3,-5
1541872952419239,8,1,-6,-20,0,1,2,22
1541872952435253,-19,-6,-7,16,3,-3,-6,-26
1541872952435253,-15,8,14,-25,-3,1,11,9
1541872952437254,78,-31,26,14,2,2,-1,16
1541872952437254,-56,-7,-48,-9,-4,-4,2,-21
1541872952458270,62,11,15,34,-1,-3,0,17
1541872952458270,-28,-2,-4,-32,-1,3,2,-7
1541872952459263,4,1,31,11,1,-2,0,-16
1541872952459263,11,-16,31,21,9,6,-5,12
1541872952472279,11,-1,-30,-43,-8,-5,4,-2
1541872952472279,-12,-7,13,20,-1,-3,7,0
1541872952479324,-5,13,-14,4,-10,-4,-13,2
1541872952479324,6,-3,6,-25,6,2,0,1
1541872952495337,-37,3,22,49,5,5,1,-12
1541872952495337,14,-29,-8,0,-3,-3,-7,21
1541872952497303,-17,-8,-31,-9,5,1,2,-42
1541872952497303,7,6,4,2,-6,-2,-2,-1
1541872952518301,30,-3,-10,-48,-6,-3,0,5
1541872952518301,-18,8,1,40,6,3,-4,8
1541872952519301,2,1,26,-18,-3,-6,-3,-17
1541872952519301,-1,15,14,-21,-5,2,-2,-3
1541872952531366,-61,-13,-14,-10,-2,-3,11,-21
1541872952531366,31,-11,8,33,1,-2,-23,14
1541872952540320,-19,-7,-22,-5,7,4,-2,3
1541872952540320,6,5,-7,-42,-7,-3,-3,13
1541872952555351,-32,-6,-21,35,-2,-3,-2,-32
1541872952555351,33,26,14,-6,-5,0,3,14
1541872952557353,-43,-19,-32,5,2,2,-1,-24
1541872952557353,36,15,16,7,3,1,3,-8
1541872952578368,4,-24,-33,-14,1,1,-1,4
1541872952578368,-8,18,43,2,-8,-7,-3,-16
1541872952579361,-5,8,-31,7,2,-1,-1,19
1541872952579361,13,-5,-16,18,0,3,2,9
1541872952591381,-2,-1,-1,-36,-3,0,-4,-5
1541872952591381,1,0,16,10,5,1,0,-3
1541872952600378,-13,6,-2,26,1,2,3,3
1541872952600378,45,11,9,-60,-12,-7,-2,7
1541872952615400,-23,-15,-2,12,0,0,-4,4
1541872952615400,-8,-29,-27,-22,0,3,1,-8
1541872952617402,2,2,1,-21,-3,1,2,1
1541872952617402,12,3,8,-4,-2,-2,-2,0
1541872952638411,22,1,21,32,2,0,0,-1
1541872952638411,-36,-10,5,41,2,-3,-1,-1
1541872952639411,2,-5,-8,-28,-5,0,1,12
1541872952639411,5,4,7,-15,0,1,0,-16
1541872952651432,-8,6,-3,1,4,0,0,1
1541872952651432,-1,6,20,-22,-7,-1,0,-7
1541872952660420,4,-1,-28,24,1,-2,0,9
1541872952660420,8,11,5,32,4,2,0,7
1541872952675485,-11,5,9,-33,-11,-6,-3,-5
1541872952675485,12,1,-12,-1,3,0,-1,-6
1541872952677487,-12,-2,14,-2,-1,-3,1,14
1541872952677487,16,-17,-16,1,-1,0,-4,-11
1541872952697469,-1,47,21,24,5,1,-1,2
1541872952697469,0,6,-14,-21,0,1,-3,-5
1541872952699451,1,3,3,17,4,30,2,7
1541872952699451,-38,-7,-12,-27,-15,-39,-5,-6
1541872952711481,12,-2,10,6,2,2,-1,4
1541872952711481,-8,10,-20,-67,-11,-1,-2,-2
1541872952720467,12,14,34,53,7,0,1,-8
1541872952720467,-7,1,-6,-4,2,11,2,5
1541872952735499,-4,-10,-15,-27,-6,-3,-1,-3
1541872952735499,8,-6,-12,41,-8,-6,-1,2
1541872952737506,13,-5,-8,-1,9,-1,-1,-1
1541872952737506,-16,3,2,31,7,8,0,3
1541872952757514,5,-15,-12,0,4,1,3,4
1541872952757514,-6,-2,5,-37,-8,0,-3,-6
1541872952759500,-4,-4,7,-27,-13,-11,-4,-5
1541872952759500,-20,1,-10,28,0,-1,-1,9
1541872952771564,6,-4,3,-4,1,2,1,-2
1541872952771564,-1,-1,1,35,11,3,1,2
1541872952780518,31,5,-7,-13,-10,-8,-1,-4
1541872952780518,-4,-1,8,-10,-1,2,0,1
1541872952795548,11,-2,-5,38,7,0,-2,-2
1541872952795548,-10,-1,6,-13,-4,-3,-2,5
1541872952797551,-16,3,-13,8,-2,-8,0,-8
1541872952797551,8,0,0,13,-1,4,0,11
1541872952817568,1,0,-7,-5,-1,8,-1,-1
1541872952817568,6,1,5,32,11,-15,1,-2
1541872952819559,-1,3,17,-61,-18,15,0,0
1541872952819559,-6,-2,-4,23,14,-5,3,-3
1541872952831580,-11,-5,3,-2,-8,0,-2,-4
1541872952831580,1,0,7,29,11,4,0,0
1541872952840567,0,-4,-9,8,-1,-8,-3,-2
1541872952840567,-9,1,7,5,-4,2,-1,-5
1541872952855581,14,3,6,-5,-1,1,1,6
1541872952855581,-12,-2,-38,-6,1,1,-1,-4
1541872952856594,2,1,17,-30,-4,-3,1,2
1541872952856594,-4,-7,10,88,-13,-8,-6,-8
1541872952877612,-7,-6,-9,9,-5,-11,-3,-4
1541872952877612,-3,-2,-9,-89,-17,6,3,-2
1541872952879600,10,1,33,106,15,2,1,6
1541872952879600,8,5,-54,-128,15,18,7,-5
1541872952891664,-29,-5,26,63,-5,-6,-4,4
1541872952891664,11,-1,35,31,-4,-10,-5,-4
1541872952900626,-7,-2,-18,-32,-4,-7,-2,-2
1541872952900626,4,3,0,-13,-4,-6,-2,0
1541872952915648,4,0,-24,-53,2,-1,3,0
1541872952915648,-4,1,-8,1,6,14,2,-2
1541872952916648,4,0,-2,20,8,13,-2,0
1541872952916648,-19,-1,11,-13,-9,-17,0,1
1541872952937667,5,1,9,-4,-3,-2,-4,-2
1541872952937667,-5,-1,-2,-12,-4,-6,-1,1
1541872952939648,4,-4,-33,-56,-23,1,0,-2
1541872952939648,8,-2,1,42,22,9,1,-1
1541872952951713,-2,-1,-6,3,14,4,0,-2
1541872952951713,8,1,1,-7,-5,-2,-1,0
1541872952960667,-2,12,-12,-34,-5,-13,-2,-3
1541872952960667,-3,-27,13,28,-17,15,-6,-2
1541872952975681,3,7,8,7,23,-17,0,3
1541872952975681,1,2,-56,-17,-3,8,0,-2
1541872952976736,-4,-13,12,-52,4,-7,-2,-1
1541872952976736,-7,2,16,-6,-12,-1,-6,-4
1541872952997752,4,2,-13,13,-7,0,2,1
1541872952997752,-3,-4,10,21,9,-1,-3,-1
1541872952999717,-5,0,8,-19,-7,-8,1,-2
1541872952999717,6,6,-3,9,-1,13,4,3
1541872953011763,-4,-8,-3,0,26,6,-4,-4
1541872953011763,1,-5,10,-28,-4,-7,-1,-1
1541872953020736,-2,-2,-11,24,-26,-15,-3,2
1541872953020736,-1,0,8,2,20,2,-3,-4
1541872953035747,1,4,10,-20,-4,11,6,1
1541872953035747,2,1,2,27,2,0,-4,1
1541872953036745,-4,-5,0,19,7,15,4,-1
1541872953036745,-1,6,-5,-23,-7,-26,0,1
1541872953057801,0,-1,-11,-1,-10,-4,-1,-1
1541872953057801,0,-3,2,10,13,1,3,0
1541872953059762,-1,-1,5,13,-9,13,-2,0
1541872953059762,0,2,-3,-16,-14,-1,6,2
1541872953071812,-3,-4,-4,-15,-25,-5,-7,-6
1541872953071812,3,2,5,-1,-7,6,0,1
1541872953080784,1,6,8,13,17,-9,-1,11
1541872953080784,-1,2,-1,7,-6,1,-5,-12
1541872953095832,-1,-11,-10,-24,-20,-22,-2,0
1541872953095832,-3,0,2,3,-4,-6,-2,-4
1541872953102839,1,-8,3,9,-12,1,1,0
1541872953102839,-1,2,-4,-1,35,8,0,7
1541872953117815,0,7,-2,-9,-28,8,-1,-1
1541872953117815,-2,-6,0,3,4,-8,-2,-2
1541872953119816,-1,-5,2,14,7,7,1,14
1541872953119816,0,4,-2,-15,-19,-14,-3,-8
1541872953131821,2,2,2,3,4,6,9,6
1541872953131821,-1,-5,4,1,1,10,-14,-5
1541872953140827,-1,3,-1,5,8,1,0,4
1541872953140827,-3,-10,-4,-3,-10,-6,-5,-3
1541872953154840,-3,1,-4,-9,0,-1,2,-1
1541872953154840,0,11,1,6,0,1,7,4
1541872953161886,-1,-4,-2,4,10,1,1,-4
1541872953161886,1,-4,1,0,0,0,-2,5
1541872953177864,-2,-4,-5,-10,-4,-6,-3,-2
1541872953177864,-2,-2,-4,0,-6,-14,-2,0
1541872953179866,-3,1,-1,0,3,-1,-4,-13
1541872953179866,-2,-8,-1,1,7,5,3,-1
1541872953191859,2,-3,-2,-3,4,10,-1,0
1541872953191859,2,3,-2,-2,-8,6,1,-1
1541872953200864,2,5,2,2,4,-15,0,6
1541872953200864,6,9,0,-2,-14,2,-3,-10
1541872953214877,-3,-4,-3,0,8,2,-3,-2
1541872953214877,-10,-2,-2,-3,-3,-4,1,0
1541872953221896,-3,-3,0,0,6,3,0,-4
1541872953221896,-3,-12,1,0,6,2,-3,5
1541872953237914,4,-6,2,-1,-13,-2,-4,-3
1541872953237914,5,12,-1,-4,-9,-3,2,2
1541872953239914,1,-2,-1,1,-2,-4,-3,-4
1541872953239914,1,1,-3,-3,1,-2,-1,-7
1541872953251925,-4,0,-1,1,7,0,3,-3
1541872953251925,-2,-8,-1,-2,0,-1,-3,0
1541872953260933,-2,0,-2,-1,1,-5,-3,-5
1541872953260933,1,3,2,4,1,0,0,3
1541872953274944,-1,1,-3,0,-14,-5,-1,1
1541872953274944,1,-3,8,-6,11,7,4,0
1541872953281950,-3,1,12,-4,5,-1,-2,-6
1541872953281950,-4,0,-10,-2,-3,-3,-2,-1
1541872953297963,6,0,-7,-1,0,-1,0,3
1541872953297963,-2,-1,4,11,3,-2,0,1
1541872953299965,1,-1,-3,-7,-3,1,1,-3
1541872953299965,-6,0,3,5,4,-1,-5,2
1541872953320973,1,5,6,2,6,6,5,-1
1541872953320973,5,-4,-15,-1,-8,-4,-2,-2
1541872953321964,-3,-1,-10,-3,-3,-1,-2,-2
1541872953321964,-1,2,3,11,-5,9,2,2
1541872953335032,-3,-12,-10,0,8,-3,-5,-3
1541872953335032,0,1,6,8,1,-3,1,0
1541872953342002,0,-1,-4,-27,-6,-3,-2,-3
1541872953342002,1,0,7,45,0,0,-1,0
1541872953358012,-3,-4,-17,-31,3,2,1,-1
1541872953358012,-6,-8,15,-41,-10,-4,-6,-3
1541872953360014,2,7,33,87,6,-6,-2,-1
1541872953360014,1,19,20,-72,-14,-6,-4,-1
1541872953380031,-4,13,-12,55,8,6,2,2
1541872953380031,1,6,-18,-32,6,4,3,1
1541872953382013,3,7,0,-11,3,2,-2,-7
1541872953382013,1,-5,4,-9,-3,-3,1,2
1541872953395042,-2,2,-12,-17,-7,-7,-3,-4
1541872953395042,2,8,17,101,9,5,0,-1
1541872953402030,-6,-13,-37,-89,-12,1,-1,-1
1541872953402030,-5,-7,-30,-19,-5,-3,-1,0
1541872953418061,1,-3,46,-21,8,-1,-4,-2
1541872953418061,0,-7,-33,5,-7,-1,0,2
1541872953420059,-5,-10,-24,-15,-12,-9,-5,-4
1541872953420059,4,3,34,0,2,4,1,2
1541872953440096,-1,-2,-18,-34,1,-1,0,0
1541872953440096,2,8,56,40,7,0,0,-1
1541872953442069,3,16,59,52,4,4,1,2
1541872953442069,-10,-33,-33,7,-13,-11,-5,-3
1541872953454092,-3,1,47,32,0,-5,-5,-4
1541872953454092,4,1,-33,-49,0,6,4,1
1541872953463080,-2,-6,28,-28,-1,9,4,2
1541872953463080,2,4,-19,14,9,2,1,1
1541872953478147,5,35,-11,-3,-3,-2,-2,1
1541872953478147,-4,-8,21,53,-4,-9,-10,-8
1541872953480111,7,3,-3,-54,6,-1,3,6
1541872953480111,-6,5,38,-3,-6,2,3,0
1541872953500165,2,-10,-14,38,-4,0,0,-3
1541872953500165,-2,-2,-3,-54,-2,0,-1,-1
1541872953502112,-5,12,60,100,19,2,-2,0
1541872953502112,8,-14,-88,-84,-18,-8,-4,-3
1541872953514140,2,0,24,-43,1,3,2,-7
1541872953514140,-20,-12,-3,5,-11,-8,-3,11
1541872953523139,10,-14,-70,-2,-7,-5,-5,-5
1541872953523139,-18,9,75,89,19,7,11,0
1541872953538197,28,-14,-70,-25,-12,-3,-12,7
1541872953538197,-33,1,19,-37,-2,-2,-2,2
1541872953540160,-1,20,17,14,3,2,-1,-5
1541872953540160,-14,-11,-42,-8,-6,1,1,-4
1541872953560180,1,-2,-25,20,4,2,3,-2
1541872953560180,-45,-10,-1,-11,-5,-4,-1,-14
1541872953562172,46,8,23,3,-5,-6,9,25
1541872953562172,12,12,28,26,8,3,-24,3
1541872953574191,-13,-9,30,15,3,-2,27,-4
1541872953574191,20,10,-3,8,6,5,1,-3
1541872953583189,-36,-21,-22,34,-12,-8,0,-14
1541872953583189,17,-8,-2,11,-2,1,16,5
1541872953598210,-48,-5,-14,-40,-12,-7,-54,-3
1541872953598210,21,1,-29,3,1,0,6,-5
1541872953599210,11,1,25,-17,3,1,5,-5
1541872953599210,-12,-1,-37,-16,-3,-1,1,12
1541872953620228,-7,1,48,25,6,2,10,-2
1541872953620228,7,0,-5,5,-1,-1,-5,1
1541872953622211,-11,-16,-4,11,-3,-1,-9,-6
1541872953622211,28,24,-29,-37,-2,-2,-1,-5
1541872953634240,3,2,3,36,3,3,2,1
1541872953634240,-2,0,-15,-14,2,2,8,5
1541872953643238,19,-21,10,18,2,-1,-2,-5
1541872953643238,6,-3,77,35,8,2,5,2
1541872953658243,-4,4,-84,-88,-19,-5,0,-7
1541872953658243,22,24,9,66,8,4,0,4
1541872953659256,8,-25,2,-18,-5,-1,-2,-7
1541872953659256,-3,-6,-52,-9,-1,-3,3,-5
1541872953679271,12,10,120,57,15,7,-3,13
1541872953679271,-16,0,-17,-14,-12,-6,-25,-17
1541872953688275,-21,-2,15,33,9,2,-2,6
1541872953688275,23,19,-66,-81,-13,-1,-6,-13
1541872953694289,-18,-11,-21,36,6,1,3,20
1541872953694289,-11,0,20,-10,-7,0,32,-7
1541872953703279,18,13,-2,0,0,-3,-12,5
1541872953703279,37,-3,11,57,7,0,-7,2
1541872953718309,-42,-11,-3,-22,-4,-1,10,-6
1541872953718309,4,-15,-9,-38,-3,1,-19,2
1541872953719294,13,11,-44,-19,-3,-2,14,-6
1541872953719294,-31,-3,30,-2,1,-5,12,2
1541872953742329,13,-9,-13,-4,-4,-3,-5,-2
1541872953742329,14,-11,16,2,1,0,-2,6
1541872953743311,-23,-5,-41,-12,-7,-1,-2,1
1541872953743311,-22,-3,17,-24,-4,0,-7,4
1541872953754339,16,-9,-4,-2,-2,-2,2,-6
1541872953754339,26,2,0,32,5,-1,-1,3
1541872953763327,-40,7,6,-7,-2,-1,-15,-4
1541872953763327,-27,1,5,-7,-2,1,22,11
1541872953778394,61,-10,-5,-6,-3,-2,-7,-6
1541872953778394,-1,2,4,-14,-2,-2,4,1
1541872953779367,-39,11,17,-13,-7,-1,-11,-14
1541872953779367,5,-8,-1,27,6,1,-7,-10
1541872953800377,-3,-11,-9,-1,-3,-3,1,8
1541872953800377,-3,5,-5,-16,-1,-1,0,0
1541872953802379,14,-2,-1,18,0,-2,3,3
1541872953802379,-5,5,15,-4,-1,-1,-7,0
1541872953814389,-6,8,3,6,-5,-2,3,-9
1541872953814389,1,-9,-1,3,3,0,10,-1
1541872953823396,-13,2,-16,-11,-1,2,-23,11
1541872953823396,-6,-9,0,16,1,-3,-1,-20
1541872953838408,-3,5,7,-17,0,0,1,2
1541872953838408,22,-6,-31,12,-7,-1,-10,2
1541872953839390,-18,-2,2,-21,-2,3,16,-1
1541872953839390,6,2,13,13,1,2,3,1
1541872953860462,-33,7,6,-6,-1,-2,-17,1
1541872953860462,24,-4,-8,10,0,1,-13,3
1541872953862429,-4,-4,-15,-11,-1,1,25,-5
1541872953862429,5,-4,-8,7,-3,-3,-22,2
1541872953874438,-19,4,14,10,2,3,6,-3
1541872953874438,-1,-5,0,-21,-3,-2,4,-19
1541872953883439,13,4,-8,-2,-2,-1,-11,0
1541872953883439,-4,-4,-2,-3,0,0,3,1
1541872953898495,-13,-12,-17,0,-3,-4,12,-11
1541872953898495,9,8,13,-9,-4,-3,-5,13
1541872953899456,2,-3,13,15,2,0,4,-2
1541872953899456,5,3,0,-1,-1,-1,1,1
1541872953920459,14,2,-8,4,0,-2,-8,3
1541872953920459,-20,-8,-7,-3,1,-1,3,-5
1541872953922458,11,4,6,-11,1,-3,4,2
1541872953922458,1,-6,13,5,1,0,-6,4
1541872953934525,7,-2,-32,-2,-4,-1,-3,-4
1541872953934525,-11,-2,8,-4,-2,1,5,-2
1541872953943515,3,-1,-9,-1,-3,-2,0,2
1541872953943515,-7,3,7,1,-4,-2,1,-2
1541872953958501,17,2,7,2,4,3,14,2
1541872953958501,-37,-1,3,0,2,1,-28,-7
1541872953959500,8,-4,-10,-2,-2,-1,20,0
1541872953959500,-5,-1,-1,1,-1,-1,-10,-4
1541872953980529,10,8,11,-2,2,1,7,-6
1541872953980529,12,-2,0,2,1,1,-18,18
1541872953982528,-5,-3,-4,-3,-1,-1,2,-12
1541872953982528,2,4,0,-2,-2,-2,-1,-3
1541872953994537,8,1,2,0,-2,-1,-3,3
1541872953994537,-18,0,2,1,-4,-2,1,-3
1541872954003544,31,-5,-7,-3,2,5,28,4
1541872954003544,2,0,0,-3,-1,-4,-31,-1
1541872954018538,-4,-1,0,-1,-2,-3,13,-3
1541872954018538,-1,0,5,4,-3,-3,12,-3
1541872954024562,-15,-6,-5,-7,-1,1,-12,5
1541872954024562,1,-2,-8,0,-1,1,34,2
1541872954040575,-3,-1,1,-1,-1,-2,-16,0
1541872954040575,13,-3,5,0,-1,-1,16,-3
1541872954042577,-4,2,-3,1,-3,-2,-19,-3
1541872954042577,2,-2,1,-5,2,2,-9,1
1541872954054586,-10,-3,1,-2,0,-2,-7,-4
1541872954054586,8,2,-6,-2,-2,-3,10,4
1541872954063594,-1,-1,-2,0,-2,-3,-7,-3
1541872954063594,-10,-3,-3,-2,3,2,-7,-1
1541872954077600,6,0,13,16,-1,-2,-21,3
1541872954077600,-6,-1,-12,-20,-2,0,39,-1
1541872954084606,-1,1,-3,10,0,-2,-22,-1
1541872954084606,-20,-6,2,0,-3,-4,-2,-1
1541872954100659,2,1,3,7,-1,-1,11,2
1541872954100659,0,2,1,-14,5,4,-14,1
1541872954102626,-7,-3,-11,-3,-3,-1,-3,-1
1541872954102626,5,2,19,44,4,-1,17,-1
1541872954114636,0,-1,-3,-25,-5,-1,-6,-1
1541872954114636,-6,-3,5,27,2,-3,-9,-2
1541872954123644,4,5,18,-5,2,7,16,5
1541872954123644,0,-2,-17,-17,-4,-1,-14,0
1541872954137655,-3,-6,1,20,-6,-8,4,-3
1541872954137655,-2,2,3,-10,0,1,-7,1
1541872954144655,-1,0,5,-5,-1,2,-12,0
1541872954144655,2,2,14,17,18,10,5,-1
1541872954160674,-6,-2,-28,-36,-8,-4,17,-1
1541872954160674,-2,-2,-10,-16,-3,-4,-10,0
1541872954162675,1,0,11,8,-5,-3,3,3
1541872954162675,0,-1,-3,17,-2,-3,-3,-1
1541872954174683,2,2,13,34,2,3,-6,-1
1541872954174683,-2,-2,-21,-56,-8,-6,8,-3
1541872954183687,-2,-1,6,16,-4,-3,-2,-1
1541872954183687,-2,0,-10,-58,-7,-1,2,-1
1541872954197704,-5,-2,15,36,3,1,0,-3
1541872954197704,-1,0,-2,18,-1,-1,-9,-4
1541872954204710,-3,-1,-4,10,5,-3,-4,-2
1541872954204710,-2,0,-6,-22,-7,-4,1,0
1541872954220758,0,2,-2,-17,1,6,-1,0
1541872954220758,-2,-1,-3,3,-1,-1,-5,-1
1541872954222722,-3,0,-18,-10,-1,-1,-2,-2
1541872954222722,0,-1,3,12,1,0,5,-2
1541872954242743,1,1,-2,-22,0,-1,-6,-2
1541872954242743,-2,-2,17,26,-2,-2,-3,-1
1541872954244733,1,-1,-9,5,1,-3,2,0
1541872954244733,0,-3,-3,-6,-3,3,-1,-1
1541872954257753,-1,0,-7,-21,-1,2,-1,-1
1541872954257753,-1,-2,5,15,3,-2,-3,-3
1541872954263759,1,1,0,-12,0,-4,-1,0
1541872954263759,-1,0,0,8,4,3,0,1
1541872954280756,-2,-1,-6,3,-1,1,-2,1
1541872954280756,-1,-3,3,10,4,-1,1,-2
1541872954281769,-1,-2,-3,-20,-16,-2,-3,1
1541872954281769,0,-3,-11,-2,-5,-4,0,-2
1541872954302826,-3,0,4,2,1,-1,-1,0
1541872954302826,-1,0,-1,-2,-5,0,-1,0
1541872954304775,1,-1,-1,-1,1,0,-1,1
1541872954304775,3,0,3,3,-8,-1,0,0
1541872954317839,3,-2,-5,-1,1,-2,-1,1
1541872954317839,3,-1,-4,1,0,0,-1,-2
1541872954323799,3,0,0,-5,3,3,0,-1
1541872954323799,0,1,0,2,0,-3,1,0
1541872954340822,2,1,3,7,-2,0,-2,-1
1541872954340822,-2,-4,-5,-8,1,1,0,-2
1541872954341824,-1,-1,2,2,1,-2,-2,-2
1541872954341824,-8,-3,-3,-3,-3,-2,-2,-4
1541872954362840,-4,-1,-2,1,0,-1,0,-3
1541872954362840,-6,0,4,4,-2,-2,-1,-4
1541872954364834,0,0,-2,-5,2,-1,0,0
1541872954364834,0,1,0,0,-1,0,1,0
1541872954376852,-2,-2,-4,-2,-2,-1,-3,-2
1541872954376852,1,0,-1,2,-2,-1,0,0
1541872954385851,-3,1,-1,-1,1,0,-2,-2
1541872954385851,0,-1,-1,0,1,1,-1,-1
1541872954400871,-1,-2,-2,0,-1,0,0,0
1541872954400871,0,0,0,-1,-3,0,0,0
1541872954401871,-1,-3,1,5,-10,-6,-3,-1
1541872954401871,0,-3,-1,4,0,0,-3,-1
1541872954422890,2,-1,-4,-28,6,3,0,0
1541872954422890,0,-1,0,3,-10,-3,0,1
1541872954424891,-1,-3,-2,-8,0,-2,0,-1
1541872954424891,-1,1,0,-3,-23,-8,-2,-3
1541872954436901,1,0,2,18,43,9,1,-1
1541872954436901,0,5,0,-1,-14,-2,-1,0
1541872954445910,0,3,-3,5,3,0,-1,0
1541872954445910,2,5,4,-6,4,1,-1,0
1541872954460957,-2,-3,0,-3,-6,-3,-2,-2
1541872954460957,-2,-2,-6,-8,-2,-2,-3,-1
1541872954461957,-1,-2,-5,1,-6,0,0,0
1541872954461957,1,7,9,5,5,0,-1,0
1541872954482935,-6,-12,10,4,-12,-6,-4,-3
1541872954482935,0,2,-7,-11,3,-1,0,0
1541872954484922,-2,-1,-22,-2,1,1,0,-1
1541872954484922,1,-1,-5,-4,5,2,-1,0
1541872954505994,2,8,15,7,-9,-3,2,0
1541872954505994,-1,6,2,14,10,4,1,2
1541872954506970,0,-15,-34,-10,2,-1,-1,-1
1541872954506970,-1,-13,19,5,-4,-3,-1,-1
1541872954521007,-1,-2,-16,3,-2,-4,0,0
1541872954521007,-4,-9,-29,-20,-6,0,-2,-2
1541872954521968,1,5,13,1,2,1,1,2
1541872954521968,-2,1,-19,1,0,1,1,-1
1541872954542990,-1,-1,6,-1,-6,-4,-3,-1
1541872954542990,0,-4,9,4,5,1,-1,-2
1541872954544991,-1,2,7,4,-3,-1,2,-2
1541872954544991,0,-4,-10,-5,6,1,-2,-2
1541872954557001,-2,-1,-9,-6,-5,0,-1,1
1541872954557001,0,1,16,5,4,0,-1,0
1541872954566007,1,11,18,-1,-4,-1,-1,-2
1541872954566007,-3,-19,-13,-6,-5,-2,-1,-1
1541872954581023,-2,4,-3,6,2,0,1,1
1541872954581023,0,2,6,-11,-17,0,2,0
1541872954582003,0,-10,-8,10,23,0,-1,-1
1541872954582003,-2,4,14,-28,-18,-2,1,1
1541872954603041,1,5,-27,-1,-18,-5,-2,0
1541872954603041,-1,-13,-5,-17,21,-2,-1,0
1541872954605039,-5,9,19,-5,-13,-4,-2,-5
1541872954605039,3,16,-14,11,7,3,1,0
1541872954617086,-3,-7,6,-5,-1,-2,-2,-3
1541872954617086,2,5,22,17,-7,-3,-3,-1
1541872954626074,0,-2,-6,-8,-2,0,0,1
1541872954626074,1,3,-11,-21,10,1,-1,1
1541872954640104,1,-3,23,50,0,0,0,0
1541872954640104,-4,-6,-13,4,-5,-5,-3,-4
1541872954647110,-3,-2,15,-7,6,1,-2,-1
1541872954647110,-2,-2,0,25,-8,-3,-1,-1
1541872954663088,1,7,14,-6,5,3,0,-1
1541872954663088,1,6,1,-28,3,3,2,2
1541872954665089,-3,-11,-27,12,-11,-4,-4,-3
1541872954665089,-3,0,-13,-24,1,0,0,-1
1541872954685141,1,0,11,1,3,1,-1,0
1541872954685141,-2,-4,25,-16,-1,1,0,0
1541872954686142,5,25,19,17,0,3,2,3
1541872954686142,-8,-34,-28,-24,-8,-5,-4,-4
1541872954700118,-2,-14,-6,-12,5,-2,-1,-2
1541872954700118,0,9,-8,43,-1,-4,-1,0
1541872954701119,-1,0,-5,-66,-12,1,0,-1
1541872954701119,0,9,52,5,8,1,0,0
1541872954722136,0,-8,-45,-27,-19,0,-1,1
1541872954722136,-4,-10,14,40,18,3,1,0
1541872954723118,2,6,0,51,18,2,1,1
1541872954723118,-3,0,23,3,-11,-7,-5,-3
1541872954745155,-4,-2,-7,-92,-8,-3,-1,-3
1541872954745155,-1,5,-29,22,-6,1,0,-2
1541872954746156,6,-3,28,30,3,0,-1,3
1541872954746156,1,-11,-43,36,7,0,-1,-1
1541872954760168,4,11,-31,-23,1,0,1,2
1541872954760168,-3,2,-6,-31,-5,-2,-3,-1
1541872954761168,0,-25,67,6,-1,-2,-3,-5
1541872954761168,-4,-15,-69,0,1,0,-1,-1
1541872954783187,-1,7,8,5,-2,-2,-1,-2
1541872954783187,-4,-8,32,21,4,1,0,4
1541872954784183,-2,4,-64,-21,-3,-1,0,-7
1541872954784183,2,8,65,-18,5,4,3,2
1541872954805205,5,13,23,86,0,-2,-2,-2
1541872954805205,2,-6,0,32,-4,-4,-3,-1
1541872954806203,2,2,-55,-40,0,6,4,4
1541872954806203,-2,4,48,84,-4,-6,-2,-2
1541872954820217,-2,0,14,5,11,4,3,1
1541872954820217,-3,0,-6,4,1,-2,-1,-6
1541872954821209,-1,5,-19,-39,-1,-1,0,8
1541872954821209,3,9,-23,0,-2,-1,-1,1
1541872954842235,9,0,16,-5,5,0,0,-2
1541872954842235,7,5,3,-1,1,3,2,12
1541872954843228,2,3,-1,30,-5,-4,-6,-10
1541872954843228,-19,-18,-13,-36,-7,-1,-3,-7
1541872954865255,-14,-11,25,27,-4,-2,-4,1
1541872954865255,18,2,-27,-39,1,1,-2,-5
1541872954866236,-27,-10,-4,-61,-18,-10,4,-2
1541872954866236,15,12,11,91,16,-6,0,4
1541872954879265,-1,1,-28,-82,-5,3,-2,-2
1541872954879265,6,0,5,23,-2,2,3,2
1541872954887274,3,-4,-25,-48,0,-4,-6,-2
1541872954887274,0,5,16,-30,-22,-8,-10,-6
1541872954902320,-6,-2,-2,12,22,8,12,0
1541872954902320,3,12,56,-24,10,12,12,7
1541872954903268,0,-5,-8,28,10,-1,-2,1
1541872954903268,-12,-10,-20,-33,-12,-3,6,-5
1541872954925303,5,10,1,-8,-13,-17,-11,0
1541872954925303,-6,-11,-10,-31,-5,-5,-1,-2
1541872954925303,5,22,56,32,12,10,9,2
1541872954925303,2,-1,-43,-72,-5,3,-5,-1
1541872954941316,-2,-5,27,29,-14,-7,-5,0
1541872954941316,1,17,-14,12,12,7,0,0
1541872954942317,-11,-7,8,11,-11,-6,-5,-4
1541872954942317,14,4,-5,19,5,7,5,4
1541872954962335,-32,-29,-7,-50,9,1,-7,-9
1541872954962335,-18,-21,28,23,-11,-7,-8,-9
1541872954963335,4,-4,-26,13,2,4,0,3
1541872954963335,10,29,-32,28,12,6,3,1
1541872954985354,-10,-22,-33,-62,-14,-5,-1,-3
1541872954985354,9,32,16,49,11,4,-3,2
1541872954986336,-3,-32,-42,-31,-13,-5,-2,0
1541872954986336,9,38,66,-5,4,1,3,4
1541872955000401,10,9,18,81,1,5,3,4
1541872955000401,-16,-15,-34,-13,-7,-7,-6,-9
1541872955000401,-2,11,54,-22,2,1,7,-5
1541872955000401,17,6,34,7,2,0,0,31
1541872955022419,-9,4,-89,70,7,1,0,-1
1541872955022419,6,-26,11,-56,-11,-1,5,9
1541872955023380,-25,-4,31,65,7,-2,0,10
1541872955023380,8,0,22,4,-1,-7,-9,-11
1541872955062417,-25,-17,9,8,4,6,4,0
1541872955062417,-3,-14,-33,-5,-7,-7,-3,1
1541872955063418,3,-3,-25,14,-2,-1,-3,2
1541872955063418,-5,-15,-41,-14,-2,-1,6,-4
1541872955064409,16,44,15,6,1,1,2,3
1541872955064409,-12,5,-51,-21,-9,-3,0,-4
1541872955068422,1,3,31,13,-4,-5,-3,-6
1541872955068422,-11,-11,-28,-1,-3,1,-4,-7
1541872955075427,23,6,17,-43,9,3,3,0
1541872955075427,-8,-25,18,-37,1,2,-2,-3
1541872955077410,13,-1,-66,-33,-6,-1,-5,-7
1541872955077410,-5,12,107,50,3,-7,-6,-7
1541872955090422,13,1,-103,-59,-9,-1,1,3
1541872955090422,-3,-7,40,-25,-5,-5,-3,-9
1541872955096440,11,16,60,-51,15,9,5,5
1541872955096440,-23,-43,25,48,-5,-3,0,-6
1541872955111493,1,2,-53,-25,-9,-6,-6,-5
1541872955111493,8,17,9,24,6,6,24,0
1541872955119499,-1,0,28,14,-4,-6,-24,-5
1541872955119499,31,13,-13,-29,10,4,5,40
1541872955135468,-5,33,5,17,-3,-6,-13,-41
1541872955135468,13,17,-10,24,0,0,3,20
1541872955135468,19,-24,14,1,-5,-4,7,-2
1541872955135468,-67,-25,-77,-35,-1,1,3,-15
1541872955150470,-3,-33,20,17,-6,-5,-4,18
1541872955150470,-10,3,-7,-16,-1,-1,-4,-5
1541872955156477,-8,-28,-33,63,0,0,2,-8
1541872955156477,18,-1,-51,-35,-7,0,-6,6
1541872955171507,-3,-1,20,11,1,1,7,6
1541872955171507,-2,14,22,-46,4,3,-8,-12
1541872955179513,3,5,0,81,-9,-9,-7,6
1541872955179513,0,-12,17,-7,4,5,5,-10
1541872955195514,6,-8,30,37,7,5,1,2
1541872955195514,3,3,-32,-9,3,-5,-1,-1
1541872955195514,-3,3,-23,-11,-2,1,-1,7
1541872955195514,-6,15,39,-6,3,1,4,-9
1541872955210534,7,-16,21,-33,0,2,5,-3
1541872955210534,17,-4,28,22,-9,-1,-9,13
1541872955216548,-31,8,19,-3,-2,-12,-11,-8
1541872955216548,5,-34,-79,3,-1,-4,6,-6
1541872955231556,-23,9,96,37,6,6,10,8
1541872955231556,-4,-52,-112,-24,-11,-1,-6,-17
1541872955239564,-4,-11,-4,-17,-3,-3,-11,5
1541872955239564,9,9,36,-24,-4,2,-4,-7
1541872955254575,5,19,12,-10,6,5,6,8
1541872955254575,-16,-40,-61,35,-13,-5,3,-7
1541872955261580,-2,38,103,14,9,5,10,-2
1541872955261580,-3,-7,-28,32,-18,-17,-11,-1
1541872955270570,0,-16,2,11,-9,-5,-1,-2
1541872955270570,1,12,20,-31,1,3,-1,5
1541872955276593,14,1,15,-16,2,2,-3,1
1541872955276593,2,1,-25,-13,7,5,9,4
1541872955291605,7,-1,8,16,11,6,-1,1
1541872955291605,1,20,6,2,-4,-2,-5,1
1541872955299613,4,-14,-24,-1,5,5,5,2
1541872955299613,-12,8,10,-39,-3,-3,-9,-8
1541872955314624,-2,-5,-18,-16,-8,-9,-6,-1
1541872955314624,7,27,13,15,-5,-5,-1,2
1541872955321630,7,-35,-5,7,0,-1,5,-3
1541872955321630,-16,0,13,-36,-1,1,-3,-2
1541872955337643,-4,-11,-14,11,-5,-1,4,0
1541872955337643,-2,8,29,24,5,-6,-16,-3
1541872955338644,1,-2,-19,-7,-1,4,10,6
1541872955338644,16,8,47,-9,12,8,-2,-1
1541872955351656,-8,-21,-64,-66,-26,-21,-15,0
1541872955351656,-10,3,53,46,6,3,8,-4
1541872955359662,-2,17,-21,2,-3,0,9,-4
1541872955359662,18,31,21,27,8,6,-10,3
1541872955374673,-7,13,0,6,5,3,5,-2
1541872955374673,1,-11,9,-12,6,1,-5,1
1541872955381679,4,60,18,-9,-1,1,4,2
1541872955381679,-5,-33,7,-14,-8,-2,1,-5
1541872955390677,0,20,7,11,1,-3,-4,-3
1541872955390677,0,10,-18,6,0,-5,0,-2
1541872955396692,1,-16,-25,-12,-4,3,0,2
1541872955396692,4,-1,48,2,-4,-2,1,-1
1541872955411704,-11,-15,-41,-10,-10,-2,-6,-5
1541872955411704,-19,-36,15,-2,4,-3,1,-2
1541872955419712,3,2,-5,-15,-1,-2,-6,-4
1541872955419712,2,10,-1,18,-1,-4,1,0
1541872955435715,11,-18,34,19,2,1,0,-2
1541872955435715,1,30,-14,-25,4,5,0,1
1541872955441729,0,-5,-14,0,-5,-5,-4,-4
1541872955441729,0,3,-19,7,1,4,2,7
1541872955457743,-3,-4,26,7,1,0,-2,-4
1541872955457743,6,3,1,7,-1,-3,1,-10
1541872955458744,12,1,-20,-9,-5,-1,0,1
1541872955458744,14,0,-26,-19,-13,1,3,4
1541872955471755,-5,8,-16,0,2,-3,-6,-1
1541872955471755,-58,-6,36,-9,-18,-2,-4,-4
1541872955479760,-2,-27,-17,-1,7,-1,1,-5
1541872955479760,-10,14,65,7,2,-2,2,-3
1541872955494773,16,18,17,7,2,2,2,7
1541872955494773,60,40,-18,7,-2,-1,2,7
1541872955501779,-21,-35,30,3,2,-10,-8,-9
1541872955501779,-51,-38,-10,22,-7,-3,-3,-9
1541872955517792,18,6,9,-25,-16,-4,2,1
1541872955517792,6,42,61,13,20,13,6,10
1541872955518787,23,37,-31,-19,-2,2,0,6
1541872955518787,11,-77,-71,-1,11,2,-2,-2
1541872955531803,-24,-44,40,4,0,-10,-10,-14
1541872955531803,-21,-22,-42,24,8,4,-1,-2
1541872955539812,0,24,-1,-35,-30,-8,-3,2
1541872955539812,16,42,-27,-15,4,0,0,-3
1541872955554823,4,2,24,12,10,9,4,2
1541872955554823,17,-11,1,4,2,-5,-2,2
1541872955561828,0,7,-2,11,9,1,-5,-7
1541872955561828,-8,20,0,6,-14,-5,-2,-6
1541872955577824,17,2,6,2,9,3,9,15
1541872955577824,-2,-10,-20,9,2,-3,-2,2
1541872955578830,-17,2,11,-3,2,6,-4,-23
1541872955578830,0,-3,-2,-6,-5,-1,6,22
1541872955591836,22,0,-14,2,4,1,7,48
1541872955591836,-44,-10,-2,-6,-1,4,9,1
1541872955599841,-9,-28,0,-2,-9,-5,-15,-94
1541872955599841,-19,3,0,1,0,-9,-13,27
1541872955614861,2,17,-8,3,6,6,0,-75
1541872955614861,-1,-14,-7,-7,-7,2,0,38
1541872955621878,16,6,12,10,3,5,19,59
1541872955621878,-7,-17,6,3,9,5,-3,-22
1541872955637891,7,15,-4,-6,-2,-2,10,41
1541872955637891,8,-16,-20,-13,-13,-9,-6,-2
1541872955637891,-17,-2,1,2,15,8,-7,-35
1541872955637891,10,6,7,19,13,-4,-2,12
1541872955651903,-4,1,-1,-12,-13,9,11,8
1541872955651903,7,1,6,-16,-15,-6,-4,-18
1541872955659891,5,21,0,3,24,-5,-2,39
1541872955659891,9,13,6,11,4,11,10,-3
1541872955674918,-9,-4,5,4,0,5,-15,-21
1541872955674918,1,10,3,1,-20,-10,-1,-11
1541872955681963,-8,-12,1,5,-16,5,5,67
1541872955681963,9,10,9,-2,35,-3,-2,-91
1541872955697940,-14,-4,-9,-8,-29,-5,4,10
1541872955697940,-5,-9,-2,-27,-19,0,-33,-74
1541872955697940,3,-9,-5,-5,22,-1,9,12
1541872955697940,5,3,-2,-6,-40,-3,-22,14
1541872955711935,-4,0,5,40,11,-3,17,36
1541872955711935,6,-7,-11,-23,45,12,-7,2
1541872955718941,-6,-8,1,14,-36,-10,4,9
1541872955718941,-3,-1,-13,3,20,11,18,-24
1541872955734007,-4,-1,-3,-26,-14,-19,-36,5
1541872955734007,12,-2,2,7,-22,9,23,-27
1541872955742012,-29,-6,-5,4,42,7,12,18
1541872955742012,29,7,3,-39,-33,-16,23,90
1541872955758028,-19,-12,-18,-1,0,3,14,-56
1541872955758028,6,-4,-15,-23,-10,-16,-7,13
1541872955758028,11,-4,14,-9,-13,7,-52,-7
1541872955758028,54,3,-6,39,-1,0,29,0
1541872955772038,-34,0,-4,17,26,-1,-27,-7
1541872955772038,14,-6,3,38,13,-1,-15,19
1541872955779009,-12,-8,-8,-56,-18,-17,27,-16
1541872955779009,-36,-8,-6,-21,-34,-9,-27,-10
1541872955794020,59,4,-1,10,26,4,-10,26
1541872955794020,-20,6,14,2,25,12,78,1
1541872955802026,3,5,-9,19,-5,4,0,-5
1541872955802026,-51,-1,-4,4,8,-1,-48,-24
1541872955818032,27,-3,8,-33,-45,-6,102,38
1541872955818032,-49,-12,22,44,11,-9,-76,-89
1541872955818032,4,7,-18,-24,-3,-5,10,17
1541872955818032,12,-4,-11,2,35,7,-6,8
1541872955832089,-26,-4,-10,-41,-3,6,2,-21
1541872955832089,-9,4,1,-10,11,-1,10,51
1541872955839060,1,6,16,28,-7,-7,-22,-23
1541872955839060,5,-1,-1,-13,-3,-7,25,-11
1541872955854069,-6,12,1,14,-4,-6,-63,-19
1541872955854069,16,21,1,-1,-25,9,26,32
1541872955862080,-5,-15,3,1,26,16,17,0
1541872955862080,20,24,0,-3,7,12,14,21
1541872955878070,-16,-33,-9,-4,0,-2,-20,-17
1541872955878070,9,-52,-13,-15,-15,-26,-9,8
1541872955878070,-44,-43,-12,7,-6,-2,6,-9
1541872955878070,-32,32,12,-4,-18,-1,0,-31
1541872955892100,22,-18,-6,8,17,3,41,-2
1541872955892100,-1,-4,-2,2,11,-2,3,1
1541872955899106,44,9,8,17,-12,-6,-75,10
1541872955899106,-62,-4,8,-11,-17,-2,9,-22
1541872955914154,15,44,-7,8,0,-4,2,-15
1541872955914154,2,11,-16,-48,-1,-1,12,17
1541872955922124,19,16,-5,17,8,-3,-8,-6
1541872955922124,49,-4,23,25,-7,3,-1,16
1541872955946180,-90,-32,-16,3,-16,6,-13,-8
1541872955946180,-24,-27,-9,-9,11,2,-23,4
1541872955946180,4,-3,13,-11,1,23,-1,-6
1541872955946180,6,13,8,3,2,-39,-10,10
1541872955959156,27,-8,4,12,1,1,54,4
1541872955959156,11,18,24,21,-1,-4,-36,11
1541872955967162,-32,9,-58,-38,-11,13,75,-18
1541872955967162,26,-21,31,14,12,6,5,8
1541872955982174,23,6,-32,-7,12,-5,-30,12
1541872955982174,4,15,-14,-18,-14,-6,12,-4
1541872955983166,-12,7,37,20,0,-7,7,4
1541872955983166,2,-11,-17,-8,-3,1,-52,-2
1541872956006194,12,22,23,-2,1,5,3,14
1541872956006194,-1,-18,-8,9,-1,9,24,-23
1541872956006194,15,-8,2,-7,-4,-15,-31,18
1541872956006194,6,-4,1,10,-3,3,-31,-13
1541872956019206,11,2,15,11,-1,-3,-10,7
1541872956019206,-47,26,-3,-2,8,4,-20,5
1541872956027212,1,16,9,-3,-8,-6,-3,-2
1541872956027212,-20,-49,-12,6,7,7,3,0
1541872956042223,-18,2,-14,-15,-4,-2,6,-14
1541872956042223,8,-3,-9,-3,-6,-4,-2,12
1541872956043205,37,-11,7,-1,2,9,-13,-1
1541872956043205,-11,-2,-7,-7,3,-10,68,8
1541872956066261,5,16,12,0,-13,0,-21,-5
1541872956066261,15,13,15,21,16,7,22,9
1541872956066261,8,0,10,9,4,0,18,-1
1541872956066261,-18,-6,-14,-9,-2,-2,7,-23
1541872956079254,34,-10,-6,-8,8,-6,15,16
1541872956079254,18,12,10,1,-19,-10,8,0
1541872956087261,-5,2,-12,-11,-18,-3,-34,-3
1541872956087261,4,-6,-3,11,23,19,40,7
1541872956102274,-23,4,8,5,-6,-15,-5,-9
1541872956102274,24,3,16,15,1,11,12,-2
1541872956103254,-32,-7,-16,12,14,-6,-25,6
1541872956103254,-3,3,-32,-44,-20,-6,11,-6
1541872956126302,-15,-2,-22,-24,-3,-7,-44,-1
1541872956126302,6,-10,2,-15,-1,1,24,-5
1541872956127278,4,-4,3,38,0,1,3,-4
1541872956127278,2,-2,-14,13,6,0,-31,5
1541872956148311,7,-8,14,5,-9,6,12,1
1541872956148311,-6,-2,10,-4,10,-8,-38,-3
1541872956150313,8,23,8,7,-5,-5,-5,-6
1541872956150313,3,17,13,1,3,8,60,9
1541872956162323,-13,-31,-29,-6,-14,-2,-54,0
1541872956162323,5,2,-27,-2,-1,1,0,-1
1541872956171327,8,10,11,2,3,-2,33,2
1541872956171327,-1,-4,-8,-18,-15,-6,-13,5
1541872956185377,-25,-8,17,4,-3,2,-1,-9
1541872956185377,4,-2,3,6,-4,1,-1,6
1541872956187339,-11,-4,-5,-2,12,-6,15,-13
1541872956187339,14,22,18,13,-17,-2,-34,3
1541872956208397,-7,17,13,15,26,6,22,-6
1541872956208397,10,-16,-34,-23,-3,7,-17,4
1541872956210363,14,-11,-4,-13,1,-20,-4,-11
1541872956210363,-62,-16,1,-31,-21,-14,-16,2
1541872956222366,13,8,-23,23,11,9,1,-1
1541872956222366,3,2,59,53,0,-10,-5,1
1541872956231380,-8,6,-32,3,-4,14,1,3
1541872956231380,18,-26,-2,-11,17,5,-1,-2
1541872956245391,-4,19,18,2,3,-4,-7,-9
1541872956245391,-6,3,6,-12,-5,-3,28,3
1541872956247384,-1,-3,10,-15,-16,-7,-1,-14
1541872956247384,11,-6,-13,14,6,7,-15,2
1541872956268410,9,-3,15,-10,7,0,5,1
1541872956268410,16,8,-22,-6,8,7,-5,-5
1541872956270410,0,22,30,4,4,5,20,1
1541872956270410,-3,-10,-17,-10,-6,-11,-14,-5
1541872956282414,-23,-34,-15,-9,-5,3,3,-3
1541872956282414,-2,-8,2,-14,-10,6,-2,7
1541872956291425,-14,-6,3,17,-8,-17,13,-7
1541872956291425,9,16,4,-17,8,11,-6,19
1541872956305476,16,24,1,10,-2,-10,-34,-22
1541872956305476,16,-8,-10,-39,-16,-8,9,-2
1541872956307423,-49,-15,4,15,6,6,-8,-6
1541872956307423,16,11,4,10,-4,-2,9,1
1541872956328496,5,-18,9,15,-6,5,12,-2
1541872956328496,-58,16,-10,15,1,-13,-32,26
1541872956329496,65,14,-4,-32,-3,8,8,-23
1541872956329496,14,-18,7,15,6,0,7,-3
1541872956342464,-57,-4,-18,-22,-3,-9,9,-10
1541872956342464,-15,-8,-4,18,-9,-4,-16,-4
1541872956351460,4,17,-16,-22,-6,-2,9,14
1541872956351460,-2,-15,6,14,-1,2,-5,9
1541872956365490,21,-6,-3,1,5,5,-20,-2
1541872956365490,17,1,-9,-6,11,0,-4,1
1541872956367483,0,4,32,20,1,4,31,13
1541872956367483,3,6,-48,-48,-6,-5,-4,-10
1541872956388509,-5,-17,8,14,-7,-7,-1,6
1541872956388509,-2,8,20,17,-20,12,-5,-9
1541872956389510,-12,-18,-45,-24,18,-15,-12,9
1541872956389510,-7,10,6,23,1,10,26,-2
1541872956401521,2,-5,7,-36,4,0,-16,-11
1541872956401521,-10,0,-31,-4,-4,-2,12,-10
1541872956410510,3,-6,11,-16,-14,1,-13,0
1541872956410510,18,1,15,24,4,-3,7,2
1541872956425540,-21,4,17,0,-3,-4,-8,8
1541872956425540,16,-3,5,-7,-2,1,12,8
1541872956427533,-15,9,-1,10,3,7,-9,-11
1541872956427533,30,16,16,-5,10,-4,-12,-2
1541872956448559,41,-9,-24,8,-8,6,32,2
1541872956448559,-4,-8,-7,-7,3,-7,-23,-4
1541872956449561,-13,-9,8,5,0,1,-11,8
1541872956449561,-9,-2,-2,-4,-16,-6,-23,-4
1541872956461570,-15,14,-4,0,19,0,-5,-2
1541872956461570,0,5,6,24,11,6,18,-2
1541872956470579,3,-14,6,-22,-7,-6,-10,6
1541872956470579,-3,2,0,0,-18,-3,-5,-7
1541872956485587,26,4,-3,-13,-1,4,10,11
1541872956485587,-21,6,3,7,18,-2,3,-2
1541872956487582,-6,5,-1,33,0,3,13,1
1541872956487582,-8,18,11,-24,8,2,-4,3
1541872956508608,29,6,-4,12,-14,-5,9,-2
1541872956508608,-26,-21,14,7,-5,-4,-7,-9
1541872956509603,12,-17,-19,-26,-2,-3,-3,-9
1541872956509603,-13,11,19,24,7,3,-14,9
1541872956521655,6,20,15,37,2,-5,2,-29
1541872956521655,16,-8,2,-19,4,4,2,-2
1541872956531623,-22,0,-2,-3,-3,-8,11,2
1541872956531623,4,-40,-37,-13,-19,-10,-5,-7
1541872956545676,-13,8,6,-16,13,4,-24,10
1541872956545676,-26,7,0,12,-2,0,38,-5
1541872956547640,54,-4,-1,-1,-4,5,-29,36
1541872956547640,-41,11,8,9,9,3,5,-19
1541872956568648,13,16,8,3,-1,-4,-4,13
1541872956568648,2,-5,3,-8,-18,-2,16,8
1541872956569640,1,4,-4,2,15,5,9,-16
1541872956569640,12,-16,-19,-27,-8,-1,-3,13
1541872956581664,-16,-6,-7,-18,-5,-1,0,3
1541872956581664,18,10,8,0,2,-1,-10,-3
1541872956590685,-23,-9,1,3,-5,-2,0,-3
1541872956590685,-4,-4,-3,1,-7,-3,3,-2
1541872956605673,0,-1,3,-4,-3,-1,2,-2
1541872956605673,23,6,1,-6,3,-5,-18,0
1541872956607671,-7,-18,-29,-34,-17,-3,10,-1
1541872956607671,-5,0,4,9,7,3,1,4
1541872956628743,-19,0,16,6,-1,2,10,16
1541872956628743,10,12,-18,-7,-3,-4,-8,-13
1541872956629705,9,8,-2,12,0,0,-6,-3
1541872956629705,-25,-23,1,6,5,2,-1,-5
1541872956641753,-3,-29,-5,-13,-10,-2,6,3
1541872956641753,0,-16,-7,1,1,1,-3,10
1541872956650723,-45,6,-5,-12,-8,-6,-14,-25
1541872956650723,4,26,17,10,-1,2,12,5
1541872956665737,16,-16,-28,4,8,4,-8,-3
1541872956665737,-5,-9,2,-8,-5,-3,-11,-8
1541872956667740,-4,-14,6,12,8,1,11,3
1541872956667740,-5,5,-1,-3,-3,-2,2,-2
1541872956688792,-7,6,21,13,2,0,8,-3
1541872956688792,27,-4,-5,-7,-2,-4,-21,1
1541872956689741,-13,-13,14,19,-3,0,28,0
1541872956689741,15,9,-6,-25,4,5,-20,-2
1541872956701758,4,-8,-38,-22,-11,-8,4,3
1541872956701758,-25,-9,4,1,5,5,12,3
1541872956710756,30,3,6,4,0,0,-12,4
1541872956710756,-1,-5,16,24,0,-2,0,-27
1541872956725770,-15,11,-29,-19,-2,6,4,3
1541872956725770,2,0,30,21,4,-2,-2,-1
1541872956727769,-6,-2,-65,-16,-1,1,-4,7
1541872956727769,0,-6,0,-14,2,-8,-2,-5
1541872956748823,0,13,-2,10,-8,-5,-8,-2
1541872956748823,9,-20,3,8,-4,2,10,-1
1541872956749803,3,24,18,45,19,5,-8,-5
1541872956749803,17,-15,-6,-25,2,-1,1,20
1541872956761853,-11,-6,10,-3,1,-4,1,-5
1541872956761853,-24,8,28,16,2,3,1,-3
1541872956770819,7,-13,-27,-14,-8,2,-2,2
1541872956770819,-4,10,-15,-5,4,-1,0,-4
1541872956785837,17,-6,18,16,3,3,4,2
1541872956785837,15,20,-11,1,8,0,4,2
1541872956787823,8,-2,22,-37,-8,-1,-7,0
1541872956787823,-21,-2,-26,22,-4,-1,1,-5
1541872956808848,17,-4,-10,-29,-5,-2,2,2
1541872956808848,-3,-3,-20,-18,-5,-6,-3,-5
1541872956809836,-9,-2,3,-10,-4,-5,-15,-3
1541872956809836,5,-2,21,16,2,1,10,3
1541872956821867,8,18,24,9,5,5,-1,5
1541872956821867,-8,-1,-14,-11,0,2,7,-2
1541872956830858,6,21,30,13,5,6,8,8
1541872956830858,-9,-7,1,0,-4,-4,-7,-11
1541872956845886,-8,-5,-2,5,-1,-5,-6,-2
1541872956845886,7,6,-12,-16,-17,1,9,0
1541872956847888,-1,-1,14,23,24,5,0,0
1541872956847888,11,5,5,6,1,1,3,12
1541872956867939,-14,-8,-5,-2,-14,-2,0,-15
1541872956867939,16,6,1,1,11,0,-8,0
1541872956869886,-30,-6,8,0,-9,-6,11,-4
1541872956869886,-1,-11,-10,-11,-8,-6,-7,1
1541872956881952,0,5,15,5,11,2,-3,8
1541872956881952,-22,-4,-6,-1,-4,2,8,-16
1541872956890919,16,0,4,2,-3,-2,-21,-10
1541872956890919,-26,3,0,-2,-4,0,19,-9
1541872956904935,36,12,8,11,4,7,57,37
1541872956904935,-7,-2,-3,0,5,-4,-38,-18
1541872956911940,9,-4,2,-3,-7,-3,-15,0
1541872956911940,-6,-8,-17,-7,-1,-6,-18,2
1541872956927989,-31,-18,-5,-5,-8,-4,-15,-27
1541872956927989,7,-3,-1,-2,-1,-1,1,11
1541872956929936,-5,-9,-9,-11,-6,-4,14,-2
1541872956929936,27,10,6,7,-6,-5,-30,4
1541872956941965,-4,4,0,6,4,5,51,18
1541872956941965,3,-1,-8,0,0,7,20,4
1541872956950954,-9,-6,-6,-3,-4,-6,-43,-32
1541872956950954,-2,-4,-6,-7,-5,-2,-2,5
1541872956964984,6,-4,-10,-6,-2,-6,-26,1
1541872956964984,-17,8,2,-3,-7,-7,-4,0
1541872956971990,38,-2,1,-3,-1,1,0,13
1541872956971990,-13,-5,4,8,10,9,47,0
1541872956988003,7,-2,6,4,9,6,-48,1
1541872956988003,5,2,-3,-3,-9,-2,40,5
1541872956989987,-12,6,-7,-7,-10,-5,-9,23
1541872956989987,3,-2,7,2,3,2,27,-21
1541872957002015,-16,6,-3,-1,-3,-3,-20,-3
1541872957002015,62,30,17,7,9,0,-20,2
1541872957011013,-75,-21,-11,-7,0,-3,-21,-21
1541872957011013,4,-8,4,3,-5,-1,-2,0
1541872957025071,-3,-18,-5,-5,1,3,-4,-7
1541872957025071,6,-4,-21,-17,-15,-3,-18,2
1541872957032076,18,20,-1,4,1,-1,17,4
1541872957032076,11,20,13,3,5,4,-6,9
1541872957048053,16,4,-23,-14,-7,-7,6,-16
1541872957048053,-57,-9,32,28,-1,4,-9,7
1541872957050046,5,-17,-30,-40,-15,-8,34,6
1541872957050046,-11,-17,-20,-8,9,16,-18,3
1541872957062065,-8,0,-12,1,6,-9,19,7
1541872957062065,18,-4,-13,-9,-4,-6,-50,-8
1541872957071067,-2,10,24,20,4,8,43,9
1541872957071067,-20,2,0,4,-9,-10,-28,3
1541872957085063,31,12,16,-6,-3,1,-22,-32
1541872957085063,-30,-3,-11,-12,7,3,73,57
1541872957092069,-4,-6,-6,9,-4,-7,-50,-34
1541872957092069,16,7,-13,-11,-7,-3,10,-2
1541872957108094,-27,0,7,7,-5,-3,-15,2
1541872957108094,-8,-7,7,0,0,-1,14,-27
1541872957110097,22,-4,-7,-16,-2,3,2,17
1541872957110097,15,6,-8,1,-3,-8,31,-18
1541872957132157,-11,-6,21,9,2,1,-36,-6
1541872957132157,12,-9,-14,-34,-2,-4,-10,1
1541872957133119,-11,-6,21,9,2,1,-36,-6
1541872957133119,12,-9,-14,-34,-2,-4,-10,1
1541872957134143,-5,-9,-9,-11,-6,-4,14,-2
1541872957134143,27,10,6,7,-6,-5,-30,4
1541872957135121,-4,4,0,6,4,5,51,18
1541872957135121,3,-1,-8,0,0,7,20,4
1541872957140109,-9,-6,-6,-3,-4,-6,-43,-32
1541872957140109,-2,-4,-6,-7,-5,-2,-2,5
1541872957141110,6,-4,-10,-6,-2,-6,-26,1
1541872957141110,-17,8,2,-3,-7,-7,-4,0
1541872957145128,-17,-3,32,0,2,2,12,1
1541872957145128,-5,0,-8,7,12,5,-16,2
1541872957155124,43,-2,-8,-19,4,-2,-1,5
1541872957155124,-49,2,29,17,-1,9,22,-10
1541872957155124,-9,-6,-6,-3,-4,-6,-43,-32
1541872957155124,-2,-4,-6,-7,-5,-2,-2,5
1541872957156123,6,-4,-10,-6,-2,-6,-26,1
1541872957156123,-17,8,2,-3,-7,-7,-4,0
1541872957161142,38,-2,1,-3,-1,1,0,13
1541872957161142,-13,-5,4,8,10,9,47,0
1541872957161142,7,-2,6,4,9,6,-48,1
1541872957161142,5,2,-3,-3,-9,-2,40,5
1541872957168133,39,11,26,21,-2,-3,-10,-11
1541872957168133,-20,2,-25,-12,-1,-3,-11,13
1541872957170144,12,-4,8,3,2,-3,-1,-2
1541872957170144,-13,0,19,22,7,6,4,1
1541872957191171,-7,-2,-20,-26,-5,-3,-3,7
1541872957191171,44,7,25,7,6,10,13,-5
1541872957192168,-14,-8,2,10,-2,-6,6,-2
1541872957192168,41,15,18,-15,3,-5,-18,3
1541872957205183,-27,-22,-37,31,1,1,-3,-5
1541872957205183,-21,-23,10,2,-5,-1,32,-17
1541872957212188,-17,-4,-22,-26,-12,-9,-22,0
1541872957212188,10,7,34,5,7,-2,2,19
1541872957228237,2,3,-13,-13,2,5,35,5
1541872957228237,1,5,0,-2,-8,-8,-19,-14
1541872957230199,-17,4,-18,13,2,3,-3,5
1541872957230199,9,0,19,13,7,6,3,-4
1541872957251201,-25,-10,-7,-5,0,0,28,20
1541872957251201,13,0,-4,-1,0,0,-79,-10
1541872957252215,33,7,11,-11,-2,-1,9,12
1541872957252215,-30,1,1,3,0,5,13,-3
1541872957264214,-8,-9,3,-24,-6,-2,17,-8
1541872957264214,14,8,39,41,5,-1,-17,-3
1541872957273273,0,6,-44,-9,3,-4,-23,0
1541872957273273,-15,-11,8,27,0,4,10,1
1541872957288286,20,-2,-26,-38,-3,-4,-10,-1
1541872957288286,-29,-10,22,21,-2,-5,-5,-8
1541872957290249,11,7,29,5,-4,-1,30,-8
1541872957290249,-4,4,-8,-22,2,7,4,-12
1541872957311270,10,3,-17,5,-1,-4,-66,-5
1541872957311270,14,4,-24,-22,-3,-5,25,-2
1541872957312253,-5,6,8,10,0,-3,-12,4
1541872957312253,-4,9,5,-8,-3,-2,2,2
1541872957324262,-5,-12,8,2,-3,-2,7,4
1541872957324262,-28,-21,-25,-11,1,2,4,-5
1541872957333281,3,-8,-3,-9,-8,-6,2,-8
1541872957333281,-1,-10,7,19,3,0,-23,2
1541872957348300,6,22,5,11,2,-2,52,7
1541872957348300,22,8,-3,-3,-4,-10,-36,-15
1541872957350301,-3,8,9,-2,7,14,24,24
1541872957350301,-31,-3,-3,-1,-2,-5,-22,-6
1541872957371319,-15,-5,6,11,-2,5,16,-7
1541872957371319,21,-11,-23,-16,1,-3,26,11
1541872957372305,-40,-4,10,3,-3,2,-30,-4
1541872957372305,53,4,-22,-17,-2,3,-5,5
1541872957384312,6,1,7,-11,-2,-8,-27,17
1541872957384312,-21,-4,3,19,-7,6,48,-22
1541872957393318,8,3,-4,1,4,-8,-27,-7
1541872957393318,-20,-13,20,20,-2,-3,23,6
1541872957408350,2,10,-7,-11,-1,3,-20,-7
1541872957408350,-5,-3,-21,-2,-6,-6,16,12
1541872957410352,-5,-17,10,0,-4,-1,-34,-16
1541872957410352,8,5,1,-4,4,3,3,-5
1541872957431365,12,2,-12,7,2,0,-8,-4
1541872957431365,-26,-1,18,6,-6,0,2,0
1541872957432360,0,0,10,-1,-2,-3,7,-2
1541872957432360,8,4,-9,-6,-4,3,30,4
1541872957444380,3,3,10,3,6,2,-20,-5
1541872957444380,6,11,6,1,5,16,-8,3
1541872957453383,-24,-3,-25,-2,-7,-18,15,-3
1541872957453383,19,6,-2,13,5,5,-17,4
1541872957468434,-5,2,-3,-34,-5,-2,10,-12
1541872957468434,7,-7,3,0,-3,3,61,11
1541872957470402,9,-1,10,-5,5,6,-35,-4
1541872957470402,2,-6,-3,-6,-3,-4,-22,-6
1541872957498424,-20,-13,-6,14,0,1,8,14
1541872957498424,-6,4,1,-4,0,-2,-7,-25
1541872957500419,8,-1,0,-2,-5,-1,-1,-2
1541872957500419,7,5,-21,-19,-10,-10,-19,-1
1541872957504429,-3,-7,-1,3,13,5,9,3
1541872957504429,-10,-10,-5,-8,-4,-5,-13,11
1541872957513418,-3,-11,-7,-6,5,1,1,0
1541872957513418,3,-1,-6,-23,1,-2,4,-10
1541872957528444,-10,2,26,32,-19,-5,12,1
1541872957528444,3,6,-17,-7,12,1,-21,0
1541872957530446,-7,-2,-13,-6,0,4,19,0
1541872957530446,26,-5,-9,11,-7,-6,-1,-1
1541872957551459,3,-4,7,7,-2,-4,-14,-11
1541872957551459,-2,-4,-7,-8,-6,-6,-5,3
1541872957552448,3,3,21,-5,-6,4,10,4
1541872957552448,-16,-7,3,7,18,3,-6,-9
1541872957564479,15,10,-5,9,-2,2,26,12
1541872957564479,4,8,2,-1,2,1,-16,11
1541872957573475,7,-6,-5,-16,0,-3,12,-5
1541872957573475,0,-1,1,20,0,0,-22,5
1541872957588498,-13,-4,-27,-29,-6,1,16,-12
1541872957588498,4,-5,17,32,8,2,-11,14
1541872957590500,13,11,-13,-28,-5,-12,6,12
1541872957590500,-11,-9,32,-8,-4,3,22,-6
1541872957610517,9,-6,-25,-10,1,-11,-18,2
1541872957610517,-4,-7,5,8,-13,1,-14,-2
1541872957612509,-26,-5,8,33,10,0,10,-9
1541872957612509,17,12,0,-10,-6,-4,15,9
1541872957624528,9,9,-5,-22,-2,10,5,-1
1541872957624528,-3,-15,-6,-16,11,-2,8,-5
1541872957633516,2,-8,0,19,-5,-4,-32,-13
1541872957633516,17,3,13,10,2,-2,0,3
1541872957648548,23,-3,-9,4,-7,1,1,5
1541872957648548,14,6,-11,-32,3,2,7,1
1541872957650551,-21,-9,0,-5,-4,2,6,12
1541872957650551,8,1,-8,33,0,1,-3,2
1541872957670549,-25,-6,18,3,-6,-4,14,-7
1541872957670549,5,10,13,5,-1,-3,-38,-16
1541872957672548,36,8,-5,10,4,5,6,1
1541872957672548,-40,-6,2,-2,-5,-4,-3,1
1541872957684612,-8,-4,-30,-3,0,1,0,5
1541872957684612,9,6,-9,-6,-8,-4,-5,1
1541872957699571,5,1,-9,-21,6,24,28,3
1541872957699571,-5,-2,-18,-35,0,-25,-35,-7
1541872957707596,-3,5,23,33,4,7,21,-3
1541872957707596,-20,-16,1,-11,-1,-2,-26,-4
1541872957714602,-15,12,11,6,-3,1,37,-1
1541872957714602,-5,1,-16,-10,0,3,9,-4
1541872957730596,13,3,14,-7,5,-7,-20,2
1541872957730596,12,2,-3,19,-10,-2,19,-1
1541872957732598,-3,-8,5,17,1,-6,-41,-1
1541872957732598,-32,-23,-27,-33,-5,-2,0,-5
1541872957744662,15,16,13,12,4,-1,-1,0
1541872957744662,-11,17,19,14,6,4,7,-2
1541872957753615,5,2,-4,2,-5,-7,-5,-6
1541872957753615,-5,5,24,27,5,8,13,-8
1541872957768646,13,-10,-5,0,-3,0,-11,-2
1541872957768646,-45,1,-18,25,-5,-9,-5,-1
1541872957770629,5,-7,-29,-32,-9,-6,-3,-4
1541872957770629,5,3,2,-7,5,4,-7,0
1541872957790664,-15,2,15,14,11,7,-2,2
1541872957790664,26,5,2,3,-8,-14,0,2
1541872957792657,-47,-8,15,-3,-6,3,4,-5
1541872957792657,14,-8,3,23,4,3,-4,3
1541872957813685,19,10,-4,-14,-7,-1,-17,-1
1541872957813685,-11,-17,-2,6,6,-2,26,-1
1541872957814685,8,4,-7,-7,3,0,-7,-1
1541872957814685,14,-4,0,-19,-9,7,11,15
1541872957828696,-14,-1,-2,-8,-1,-8,-2,-1
1541872957828696,15,7,0,-12,0,2,-11,3
1541872957829696,-7,2,6,24,-3,-5,3,-5
1541872957829696,-15,-6,-14,21,5,3,-13,-1
1541872957850750,14,-6,3,-16,-6,-3,15,-13
1541872957850750,4,-5,-20,-22,2,0,6,7
1541872957852711,-1,4,-3,23,3,5,4,19
1541872957852711,-10,-3,8,-36,-1,-2,-10,2
1541872957864727,13,8,20,47,-4,6,-2,5
1541872957864727,26,-2,-7,-1,-6,-16,-3,-2
1541872957873714,7,4,1,2,8,5,1,0
1541872957873714,4,5,-12,-20,-5,-1,-2,2
1541872957887779,-27,-15,-7,-23,-5,1,-1,-9
1541872957887779,12,7,23,6,-1,7,14,7
1541872957894750,-8,-1,-9,-12,1,-6,-11,-5
1541872957894750,8,-6,-3,-8,1,-1,-7,-4
1541872957910764,0,4,-11,9,8,1,5,-7
1541872957910764,-20,0,5,-26,0,3,-19,-11
1541872957912747,-3,-11,-4,-24,-6,-4,9,-6
1541872957912747,-6,3,10,28,-5,-2,-5,-3
1541872957924775,1,-1,6,11,2,0,1,1
1541872957924775,-9,-4,-4,0,2,4,7,2
1541872957933783,-7,-1,-7,-20,1,-3,-8,-3
1541872957933783,-1,9,1,2,-7,-1,0,-3
1541872957947794,4,-10,-5,7,-2,-8,-2,-1
1541872957947794,-3,-14,-3,6,1,0,3,-3
1541872957954800,10,3,10,-5,-5,4,6,5
1541872957954800,4,2,-11,4,0,-2,-7,-4
1541872957970813,3,4,1,-15,-1,-2,-7,13
1541872957970813,11,10,3,-4,-6,1,1,-1
1541872957972815,-6,-10,-1,7,1,-4,-4,-3
1541872957972815,6,9,-6,1,7,3,8,18
1541872957984824,-32,-10,12,-8,0,0,-15,-18
1541872957984824,16,-4,-12,15,-9,10,4,3
1541872957993832,27,7,5,7,-2,-22,-5,1
1541872957993832,-15,1,7,-6,-2,5,6,-5
1541872958007880,-1,-8,-18,-16,-9,-5,-14,-7
1541872958007880,-22,-6,2,-7,4,3,6,12
1541872958014850,6,0,2,4,1,5,13,-1
1541872958014850,10,4,-3,0,-6,0,8,-4
1541872958030863,2,-7,5,0,-2,-5,-4,1
1541872958030863,-26,-8,2,-5,-1,-1,-1,4
1541872958032864,-14,-1,-7,10,2,3,-4,-12
1541872958032864,-5,-11,1,-31,-15,-9,-10,-2
1541872958044911,10,1,-4,-1,-2,0,-4,1
1541872958044911,5,8,7,4,5,1,-8,2
1541872958053863,1,1,0,17,-1,-9,9,1
1541872958053863,20,11,17,13,4,2,-5,3
1541872958068894,-21,-11,-16,-5,1,-4,21,4
1541872958068894,2,-4,1,-10,4,4,-10,-9
1541872958069889,-1,-1,0,-6,-1,3,-21,-2
1541872958069889,-2,-1,-1,9,-5,0,0,-8
1541872958090912,-4,5,-1,-13,-2,-4,-8,7
1541872958090912,-11,0,-8,14,-1,-2,21,0
1541872958092913,21,-6,-9,3,4,4,-7,-25
1541872958092913,-16,1,9,13,2,1,0,1
1541872958113931,-1,-1,-14,-12,-5,-1,-7,-5
1541872958113931,-2,7,3,-9,4,-4,1,-2
1541872958114913,27,7,-4,-28,-6,-1,-5,11
1541872958114913,-58,-18,-15,12,4,1,-26,-5
1541872958128942,8,8,14,4,-5,-6,40,-1
1541872958128942,4,-3,-9,-10,-9,-3,-12,-4
1541872958129925,-13,-9,7,-3,5,1,6,8
1541872958129925,1,-1,-19,-9,8,5,4,-9
1541872958150962,-24,4,4,1,-1,2,-9,0
1541872958150962,45,-3,2,5,-9,-4,-5,-10
1541872958152962,-4,-1,-8,4,2,6,-5,17
1541872958152962,16,2,14,-18,0,0,5,-2
1541872958173978,-11,2,-5,4,6,0,13,1
1541872958173978,5,10,-12,-4,2,0,-5,-1
1541872958174964,-15,-12,-5,-9,-8,4,-18,2
1541872958174964,7,-2,7,5,0,-10,19,-6
1541872958188979,9,-2,-2,17,-6,-6,-14,15
1541872958188979,-23,-1,23,-11,2,2,-6,-18
1541872958189984,11,11,-4,21,2,-1,15,1
1541872958189984,0,-10,-10,13,-1,-1,-10,3
1541872958211047,1,-4,1,-41,-3,1,-6,-6
1541872958211047,-19,-7,-10,7,8,-4,-6,3
1541872958213030,1,6,3,-8,-8,-2,3,-5
1541872958213030,18,3,6,12,4,0,6,-1
1541872958234021,0,-1,1,13,7,4,-2,-1
1541872958234021,-1,1,-1,-3,-7,7,-5,1
1541872958235011,1,-3,-2,-8,-6,-7,5,-4
1541872958235011,7,0,0,0,-5,0,6,1
1541872958248041,-10,-3,-12,-6,2,1,-11,-7
1541872958248041,-1,-1,1,0,-4,-13,1,4
1541872958255047,-9,-5,6,10,2,-1,2,-17
1541872958255047,0,-1,-12,-5,-8,-3,15,9
1541872958271061,-11,0,5,-8,2,7,-6,0
1541872958271061,9,-3,-5,2,-6,-1,3,0
1541872958273058,15,6,5,-6,8,1,-11,2
1541872958273058,20,-2,0,12,-7,0,4,13
1541872958293079,-54,-4,-5,3,3,0,-9,-17
1541872958293079,-1,1,-5,-3,-2,-1,11,9
1541872958295062,-15,1,3,-21,-2,8,-8,1
1541872958295062,1,-1,11,15,0,-22,2,-3
1541872958308091,19,-9,-9,7,-7,1,-8,13
1541872958308091,-17,-6,-21,-19,4,2,6,-17
1541872958315094,1,-1,-6,10,-6,1,-21,-1
1541872958315094,3,0,13,-20,-3,1,-6,0
1541872958331111,10,7,13,16,10,1,17,7
1541872958331111,0,-2,2,4,-6,-8,-8,-2
1541872958333113,-2,-2,-2,-1,-5,5,-2,-4
1541872958333113,-12,3,2,-1,15,8,3,-3
1541872958353165,-1,-1,4,4,-6,-4,-8,-3
1541872958353165,7,2,-7,-1,1,-1,7,1
1541872958355124,-6,-3,6,0,0,-9,0,-3
1541872958355124,-4,-2,-23,-5,-4,14,-7,1
1541872958368141,-4,-8,1,-5,-6,-18,9,-7
1541872958368141,4,0,2,-4,2,9,6,11
1541872958375140,-10,-1,3,2,2,-4,-7,0
1541872958375140,-1,2,1,0,-6,-8,-16,-8
1541872958391159,12,5,-6,-1,3,16,18,1
1541872958391159,-6,-2,7,6,0,1,3,17
1541872958393148,0,-2,-8,0,6,-3,5,-12
1541872958393148,-7,-2,-8,-8,7,4,-1,-4
1541872958413178,12,-8,-4,-3,-9,-6,-7,-1
1541872958413178,-2,0,6,-1,-7,8,-8,-7
1541872958415170,6,-4,-1,-7,-11,-20,5,1
1541872958415170,-23,-5,-3,3,7,12,8,-6
1541872958428189,-9,-1,4,-2,-1,-1,4,-8
1541872958428189,7,0,-4,3,5,0,-6,3
1541872958435177,2,-5,-6,-6,1,6,-6,18
1541872958435177,2,4,7,1,-13,-8,17,-23
1541872958451208,15,3,-2,3,8,7,-7,3
1541872958451208,-6,-2,1,-1,-3,-7,15,-6
1541872958452209,1,5,-4,8,-5,-2,-26,6
1541872958452209,-16,-7,-9,-14,1,-8,4,9
1541872958473227,16,5,5,2,0,16,-7,2
1541872958473227,2,-1,-12,-4,6,-10,6,-2
1541872958475218,-16,0,4,3,-5,-6,3,-7
1541872958475218,25,0,-2,-1,-6,0,-4,10
1541872958487238,-12,-2,6,-2,2,-3,0,-5
1541872958487238,-6,-3,-10,3,-2,1,-11,4
1541872958496237,9,3,-2,-2,-4,1,13,3
1541872958496237,-2,-4,2,0,9,1,-1,-2
1541872958511294,5,0,-11,-4,-9,-1,11,6
1541872958511294,5,-2,4,1,5,-2,-19,-4
1541872958512260,-6,2,2,0,6,7,10,1
1541872958512260,6,1,-2,-3,-11,-21,-10,-3
1541872958533277,-1,-2,-9,-5,2,8,-11,5
1541872958533277,-4,1,8,2,-10,-16,0,-1
1541872958535270,0,-2,-5,-2,1,3,12,-3
1541872958535270,-1,0,3,0,1,12,-8,0
1541872958547288,-1,-3,3,6,-1,-8,-5,-4
1541872958547288,0,1,-4,-5,-1,2,1,-1
1541872958556291,-4,-1,2,1,4,7,4,-1
1541872958556291,2,-2,-6,-4,2,-1,-5,0
1541872958571308,-7,-1,1,1,-2,-5,8,-1
1541872958571308,2,2,3,-1,-9,6,1,-3
1541872958572308,-4,-2,4,5,3,-4,-9,-5
1541872958572308,2,0,-9,-3,0,1,3,4
1541872958593326,-3,0,2,-1,-5,-8,-10,-1
1541872958593326,-4,-3,8,5,-8,-16,-7,-5
1541872958595327,0,-4,-12,-14,-3,-2,7,-1
1541872958595327,-1,-1,4,1,3,10,2,-3
1541872958607338,-1,-2,-4,-2,-4,1,-2,2
1541872958607338,1,2,4,1,2,7,19,4
1541872958616331,-3,0,0,1,-8,-5,-7,0
1541872958616331,0,-2,-1,-1,0,-7,6,1
1541872958631357,-4,-4,-1,1,4,1,-14,-13
1541872958631357,-2,0,-2,-2,1,3,-13,-11
1541872958632357,-1,1,1,0,0,-3,-2,3
1541872958632357,0,1,-4,-4,-7,1,13,6
1541872958653375,1,-2,-1,1,4,-2,18,8
1541872958653375,0,-2,1,1,-4,-2,-9,10
1541872958655376,0,1,2,-5,-9,-2,-1,-20
1541872958655376,-7,-4,1,4,0,4,-11,-4
1541872958667423,-1,5,0,-1,2,-5,-6,-2
1541872958667423,1,-2,-1,1,-4,-16,-1,6
1541872958683417,0,1,21,9,5,20,7,11
1541872958683417,3,2,-14,-5,6,-7,3,4
1541872958691406,1,-2,-12,-8,-7,3,-4,1
1541872958691406,-3,2,2,3,-2,1,-7,-6
1541872958692389,1,-3,-6,-9,-7,-7,0,1
1541872958692389,-2,0,9,5,2,-1,-6,-6
1541872958713425,0,-4,3,0,2,0,4,0
1541872958713425,0,-1,-3,-6,6,4,-3,-5
1541872958715407,-2,2,4,4,-6,2,-8,-3
1541872958715407,2,4,-4,-2,-2,-4,-16,3
1541872958727473,-6,-8,-4,-4,-9,-1,22,-4
1541872958727473,5,-2,-1,-6,-3,2,-30,-4
1541872958743446,-3,-3,-7,0,9,5,22,0
1541872958743446,-2,-1,1,-5,-3,-3,-15,-4
1541872958751438,1,6,6,4,-9,-11,-11,0
1541872958751438,0,-2,-4,3,7,11,-9,-8
1541872958752438,0,-1,-6,-3,8,-2,19,2
1541872958752438,1,0,6,-2,4,10,1,2
1541872958773510,1,-2,-3,1,6,-17,-5,-2
1541872958773510,-3,-3,-5,-7,1,18,4,-1
1541872958775494,0,2,8,10,8,-11,-10,0
1541872958775494,-2,-3,0,3,-11,-3,22,8
1541872958787486,1,0,-13,-14,-3,3,-11,1
1541872958787486,-3,0,-1,0,1,-5,16,0
1541872958796493,-6,-4,-5,-2,-2,4,-2,-1
1541872958796493,-1,-2,18,-6,-12,-5,5,-6
1541872958810505,-1,2,-2,4,11,4,1,0
1541872958810505,1,2,0,2,2,0,1,4
1541872958817510,0,-3,-1,-7,-10,1,-2,-1
1541872958817510,-2,-3,0,6,3,-3,-13,-3
1541872958833560,-2,0,7,0,-5,-20,-11,-2
1541872958833560,-1,-2,1,-1,-1,4,2,-4
1541872958835526,-2,-1,-6,-3,-3,5,22,-2
1541872958835526,1,-1,-8,1,-5,-5,-7,-3
1541872958847535,2,4,9,3,4,9,5,4
1541872958847535,-1,-3,-3,2,-4,-5,-2,3
1541872958856543,2,-4,-2,-4,-2,-7,-18,-1
1541872958856543,2,4,2,0,3,0,20,-3
1541872958870555,-11,-2,5,2,-1,-3,-29,-4
1541872958870555,5,6,-3,6,2,-1,20,4
1541872958877561,-11,-5,-7,-1,3,3,4,-5
1541872958877561,2,-6,-15,-6,7,13,41,15
1541872958893573,1,0,9,8,9,6,-25,-1
1541872958893573,0,-4,-5,-8,0,2,-6,-5
1541872958895575,4,1,0,1,-5,-19,-25,-6
1541872958895575,2,6,4,3,5,1,-13,-1
1541872958907585,1,3,-5,-4,-12,-1,30,1
1541872958907585,-5,-11,-6,-4,-3,-1,0,-3
1541872958916593,5,-4,2,-3,0,19,-6,4
1541872958916593,-8,-4,0,-1,-5,-21,-6,-11
1541872958930604,-1,4,-5,0,-1,-4,-7,-5
1541872958930604,-1,3,7,2,2,6,5,-4
1541872958937609,2,3,1,3,7,9,3,11
1541872958937609,-5,-7,-5,0,1,-3,-12,-5
1541872958953625,2,-2,6,-7,-9,-4,-30,-1
1541872958953625,-5,-2,-9,-7,-10,-3,44,-6
1541872958955608,-2,3,0,7,11,-18,-33,-5
1541872958955608,4,2,-4,-5,6,18,-5,-1
1541872958967680,1,-4,0,1,-1,-4,14,-2
1541872958967680,1,4,6,-1,-10,11,-14,2
1541872958976664,5,3,-3,-2,-2,-20,-17,-3
1541872958976664,-13,1,-2,-3,-12,4,8,-6
1541872958990653,-5,-15,-5,-1,3,8,-18,-3
1541872958990653,1,-4,0,0,6,4,32,10
1541872958997658,-4,0,-3,-2,-6,-16,-11,-10
1541872958997658,6,8,3,2,-1,-4,-3,3
1541872959013672,-1,3,-4,-3,6,6,16,0
1541872959013672,-4,-2,0,-1,-7,-23,-34,-4
1541872959015673,-3,-5,0,-2,1,16,22,-5
1541872959015673,3,-2,-2,-4,-2,1,-19,8
1541872959035690,1,4,0,3,-2,5,21,4
1541872959035690,-2,1,-2,-1,0,2,-31,-9
1541872959037673,0,-1,0,-7,-7,-17,19,1
1541872959037673,2,-2,-3,0,-4,4,-10,-6
1541872959050703,5,3,-1,5,9,21,13,5
1541872959050703,-11,0,2,-2,-3,-18,3,3
1541872959057710,0,1,-1,0,-11,10,13,0
1541872959057710,-3,-3,-3,-4,0,-13,0,-4
1541872959073722,3,-7,0,-3,-3,-3,-5,-1
1541872959073722,1,-6,-5,2,-1,1,-2,0
1541872959075715,1,2,1,0,3,12,10,4
1541872959075715,1,2,-1,2,7,1,-5,-3
1541872959095739,-1,6,0,-3,-1,6,2,0
1541872959095739,0,-1,0,-5,-10,-23,-5,1
1541872959097724,-5,-6,-2,0,9,-1,-10,-2
1541872959097724,1,-4,0,0,-1,25,-3,-1
1541872959110747,-1,1,0,-1,-3,-29,-12,-4
1541872959110747,5,7,1,0,5,17,17,17
1541872959117794,-3,-7,0,1,-1,1,-13,-5
1541872959117794,-1,-1,0,-2,-4,-10,-4,3
1541872959132807,-2,-4,-4,-1,3,4,11,1
1541872959132807,0,3,0,-3,-7,-6,-12,-1
1541872959133753,-1,3,0,0,-8,3,8,-6
1541872959133753,0,1,2,2,9,4,28,-1
1541872959155789,-1,-3,-4,-7,-10,-13,-21,-5
1541872959155789,0,-3,0,0,5,19,4,-2
1541872959155789,-2,-3,-3,-1,-6,-14,-7,5
1541872959155789,-2,2,3,-2,-1,-2,-8,-8
1541872959169801,-3,2,-2,-3,-9,-14,-14,-1
1541872959169801,-2,-4,1,2,10,7,34,-7
1541872959177807,5,-8,1,0,6,9,-7,4
1541872959177807,-6,-5,-3,-2,-8,-8,0,0
1541872959192800,-1,-1,-1,1,2,5,3,1
1541872959192800,2,3,0,-1,-3,-5,-36,-3
1541872959193802,-1,-1,-2,-2,0,0,26,-2
1541872959193802,2,1,-2,0,0,-7,-5,-1
1541872959215881,-4,-2,-2,2,12,25,2,-4
1541872959215881,2,-1,-2,2,-12,-23,9,9
1541872959215881,0,1,-1,-2,-7,3,-9,5
1541872959215881,-1,-2,-1,-2,-4,-1,-8,0
1541872959238858,-3,-3,-2,-1,0,-2,-3,-5
1541872959238858,3,-3,-3,-1,7,27,6,0
1541872959239860,-1,5,-1,-1,-8,-23,-6,2
1541872959239860,-1,-3,-1,-1,0,0,-7,-2
1541872959252870,1,1,0,-1,-2,-1,9,2
1541872959252870,4,-1,1,-1,-4,-5,-7,-5
1541872959253871,-9,4,-2,2,15,12,11,-2
1541872959253871,0,6,0,1,-3,-1,-11,-4
1541872959275922,-2,-11,-3,-1,1,-5,9,-3
1541872959275922,-7,-10,-4,1,4,-5,-15,-5
1541872959275922,6,4,0,-4,-4,5,20,9
1541872959275922,2,4,0,1,-2,3,7,4
1541872959289936,2,10,1,3,8,-4,-2,6
1541872959289936,0,1,0,1,1,-6,-8,2
1541872959297897,-2,-2,1,1,-4,7,-11,-4
1541872959297897,-3,-7,-7,-3,-2,-5,7,0
1541872959312918,0,0,2,-2,-9,13,-3,-2
1541872959312918,-2,3,2,-2,1,-21,-4,0
1541872959313920,1,4,-2,-1,2,2,1,-5
1541872959313920,6,-3,-7,-1,2,0,-3,2
1541872959335934,-9,-5,-3,-4,-10,-6,-6,-1
1541872959335934,-2,-6,0,4,5,6,5,-5
1541872959335934,-1,9,5,5,4,2,-2,0
1541872959335934,-2,-7,0,0,13,2,-10,-5
1541872959349949,5,4,-3,-1,-1,0,12,0
1541872959349949,2,-3,-2,-5,-8,8,-1,5
1541872959357952,5,-4,-3,0,-4,-22,0,-6
1541872959357952,-14,-1,1,0,5,6,-10,-6
1541872959373003,1,0,-1,0,6,2,-34,-2
1541872959373003,3,4,0,-1,-5,-3,25,7
1541872959373962,-4,-7,-2,-3,-2,12,-10,5
1541872959373962,2,2,-1,0,-1,-6,10,-2
1541872959394987,-1,3,4,1,-8,-7,-2,-4
1541872959394987,-6,0,0,-5,7,-9,-11,-5
1541872959395969,4,-5,-16,-10,-15,2,21,0
1541872959395969,-5,-2,17,6,18,8,-14,3
1541872959409999,1,3,-3,11,-4,-3,2,0
1541872959409999,17,0,-21,-19,-8,0,-5,-3
1541872959418006,1,-1,-12,-8,-1,-12,-6,4
1541872959418006,13,-4,-10,0,-15,-3,28,-8
1541872959433017,-8,6,6,3,4,-1,-8,-3
1541872959433017,-4,-9,15,7,5,3,8,-3
1541872959434019,-7,-2,4,11,3,19,-19,-1
1541872959434019,18,7,0,-12,-12,-21,-13,5
1541872959455036,-2,-8,-1,4,3,-8,11,1
1541872959455036,-8,6,-5,-1,2,2,-9,-1
1541872959456028,5,-2,4,-2,2,-1,-11,-2
1541872959456028,-8,-3,8,4,-6,3,10,1
1541872959470048,-1,1,-21,-6,-1,2,10,-2
1541872959470048,-9,2,5,4,3,-1,-20,-4
1541872959478055,2,0,-3,-2,4,0,16,1
1541872959478055,-8,3,5,2,-3,0,-15,-1
1541872959493067,-1,-5,-2,-10,0,-3,9,3
1541872959493067,7,-1,-1,0,0,-3,-8,-4
1541872959494069,-4,-1,3,0,-9,-3,-1,-1
1541872959494069,-8,0,-11,0,-1,-5,3,-4
1541872959515085,4,0,15,-3,-2,9,0,1
1541872959515085,-5,-1,8,6,1,-2,-1,-9
1541872959516071,-3,2,-5,-8,0,-12,-12,-4
1541872959516071,-3,0,-2,-5,-6,-3,6,4
1541872959530097,-2,-6,1,1,-5,1,-4,0
1541872959530097,-3,-3,-2,3,4,0,-5,-3
1541872959538105,-3,-2,4,0,-1,-4,1,-3
1541872959538105,5,-2,-6,-1,-5,4,-1,-6
1541872959553117,3,0,5,2,-1,-3,6,2
1541872959553117,-3,5,-5,-3,2,18,6,0
1541872959554118,-2,-3,-2,-1,2,-10,-5,-2
1541872959554118,-4,-3,-3,-5,-12,-10,-8,0
1541872959575172,-1,-4,-1,-3,8,1,3,-4
1541872959575172,-2,1,0,0,-4,2,-19,-4
1541872959576118,-2,3,0,2,11,3,23,3
1541872959576118,-2,-5,5,2,-2,2,1,4
1541872959590187,-1,-3,-9,0,0,-1,-3,-2
1541872959590187,2,-1,-6,0,-6,-7,3,1
1541872959598191,-1,-1,-2,-7,-4,6,-11,-5
1541872959598191,0,0,0,-2,2,1,-8,0
1541872959613167,3,-1,1,-6,-2,-2,1,-1
1541872959613167,-7,0,4,3,4,12,11,3
1541872959614168,1,-1,0,4,1,-15,2,-1
1541872959614168,-3,-4,-4,-2,-10,0,-5,-2
1541872959635185,-1,-5,-7,-4,3,7,-4,-2
1541872959635185,0,0,-5,-5,-27,-22,4,0
1541872959636166,1,-2,5,3,24,13,-14,-5
1541872959636166,3,1,1,4,9,2,8,7
1541872959650197,-1,-4,-11,-6,-7,-7,-3,4
1541872959650197,0,-4,7,0,3,5,5,0
1541872959658203,-2,-1,-1,-8,-11,1,-1,1
1541872959658203,-1,1,1,-1,0,-11,-8,-6
1541872959673217,-2,1,4,3,4,-1,4,-5
1541872959673217,-2,-6,-3,-2,12,4,2,1
1541872959674216,4,1,5,2,-11,-6,-1,0
1541872959674216,-3,1,-2,-1,-1,2,7,-3
1541872959695234,0,2,0,2,-7,3,-2,-1
1541872959695234,1,-3,-3,-4,5,10,-3,-3
1541872959696220,-3,-2,4,4,-9,-20,-12,-9
1541872959696220,0,0,-2,0,2,5,9,10
1541872959710245,0,3,-1,-1,-9,-8,-5,-3
1541872959710245,1,2,-4,-4,21,13,11,2
1541872959718254,-1,2,2,4,5,9,-4,1
1541872959718254,0,0,-5,-6,-7,-1,-4,-2
1541872959733265,-1,-4,2,5,13,0,-4,-3
1541872959733265,0,0,1,1,-7,-13,-2,-1
1541872959734250,-1,2,-4,0,-4,4,0,1
1541872959734250,0,0,3,-4,2,1,0,-4
1541872959755283,0,-2,0,-2,-3,-10,-3,2
1541872959755283,-2,1,-2,3,-3,16,-3,-6
1541872959756277,-6,-5,-6,-2,-2,-13,6,2
1541872959756277,1,-1,1,3,2,6,-6,-3
1541872959778337,-2,3,-1,-5,-1,15,-7,-2
1541872959778337,-1,0,-2,-2,-12,-23,13,1
1541872959779287,0,0,2,2,3,9,-9,0
1541872959779287,-1,-7,-2,2,3,-3,-1,-1
1541872959793351,0,-4,-1,-1,0,4,-1,-2
1541872959793351,0,5,3,4,2,-4,-3,1
1541872959794321,-3,-3,-1,-3,-1,3,1,-3
1541872959794321,-2,-2,-2,-2,2,-2,-4,-3
1541872959815333,-1,-1,0,1,5,0,9,0
1541872959815333,-2,0,1,-2,-13,-1,-7,4
1541872959816333,-1,-2,-3,2,2,11,1,-2
1541872959816333,-2,0,-3,-5,-12,-24,-11,0
1541872959830337,-1,-3,-3,-1,4,16,11,1
1541872959830337,-1,-2,0,0,-7,-19,0,-5
1541872959838351,0,0,-4,-4,-4,4,-3,0
1541872959838351,2,0,0,-1,4,6,0,-1
1541872959853399,-1,3,2,-1,-2,-6,-1,2
1541872959853399,-1,-2,-1,3,8,-1,-3,-1
1541872959853399,0,-4,-4,-7,-4,-7,-8,-1
1541872959853399,0,-4,-1,2,-2,5,2,-6
1541872959875382,1,3,0,-2,-2,-3,8,4
1541872959875382,-1,0,-1,0,5,8,-2,-1
1541872959876382,1,6,3,2,0,-3,-6,1
1541872959876382,-1,0,-4,-2,-4,-3,4,-1
1541872959889393,-2,-8,0,-1,-10,-13,-6,-7
1541872959889393,1,0,-1,2,-3,8,-4,1
1541872959898401,0,-1,-3,-2,4,3,4,0
1541872959898401,0,1,-1,-2,-2,-17,-6,-1
1541872959913413,0,3,5,9,-1,-4,-7,0
1541872959913413,-1,2,-4,-4,-5,9,9,-4
1541872959913413,1,-1,1,1,11,-3,0,0
1541872959913413,-1,0,0,-1,1,11,-1,2
1541872959935431,0,0,-3,-4,-5,-5,2,-2
1541872959935431,0,-1,-2,1,-5,-6,12,-1
1541872959936433,-1,-2,-2,-4,-7,-3,-20,-7
1541872959936433,-3,2,1,5,0,-2,7,1
1541872959958451,2,1,0,-1,2,0,-10,2
1541872959958451,-2,-4,-2,0,2,2,16,2
1541872959959433,3,-1,1,-2,-6,-4,0,-10
1541872959959433,-1,-6,-1,-4,1,1,3,4
1541872959973504,-3,3,0,-3,-11,-6,-6,-3
1541872959973504,-1,-9,-2,-5,4,-2,-9,0
1541872959973504,-2,-8,-1,-1,-5,-1,9,-1
1541872959973504,0,5,0,3,7,2,-8,-4
1541872959995481,0,-2,-1,-3,-3,2,1,3
1541872959995481,1,6,-1,-5,-9,-7,-3,-2
1541872959996479,1,0,1,1,0,-2,4,3
1541872959996479,-2,0,1,2,6,26,2,-2
1541872960018500,0,0,-4,-4,-4,-33,3,1
1541872960018500,-1,-2,1,-1,-9,-6,-12,-1
1541872960019493,-1,1,-2,2,-4,2,3,2
1541872960019493,-1,-2,-7,-9,3,-2,6,-1
1541872960033506,-2,-4,-2,-1,-1,9,-18,-6
1541872960033506,-2,-1,0,4,5,12,7,1
1541872960033506,-1,1,1,2,-1,-4,0,1
1541872960033506,-3,1,-1,6,-2,-1,15,-1
1541872960055531,-2,-2,-2,1,-1,0,11,0
1541872960055531,-2,-10,-3,-15,-6,-9,-25,-5
1541872960056531,-3,1,-3,1,-4,-5,5,-4
1541872960056531,2,3,3,1,2,1,0,3
1541872960078549,1,6,1,7,6,13,3,-5
1541872960078549,-3,2,2,4,2,-7,-7,6
1541872960079532,-7,-10,-3,-7,1,-3,2,4
1541872960079532,-3,-10,-3,-2,-12,-7,-13,-4
1541872960093562,2,-1,0,0,-4,-12,4,0
1541872960093562,3,5,1,-3,4,4,-3,-3
1541872960094562,0,2,-1,1,3,9,-1,-2
1541872960094562,-1,2,-1,0,2,0,0,-1
1541872960115580,-2,1,1,-1,3,5,-3,-5
1541872960115580,1,-1,-3,-1,2,0,5,-1
1541872960116581,3,4,3,2,-3,-8,5,5
1541872960116581,-2,-1,-1,-1,7,4,-4,-2
1541872960138600,-2,-3,-7,-10,-4,8,-2,-2
1541872960138600,-5,-8,-4,2,4,-2,-3,-2
1541872960139600,-3,-12,1,1,-8,-2,-8,-1
1541872960139600,1,6,-2,-3,-3,0,-7,-7
1541872960152645,1,-3,0,-7,-5,-20,10,7
1541872960152645,1,4,-1,1,3,14,-9,0
1541872960153608,-1,3,-1,-1,-5,-9,-3,-1
1541872960153608,-4,-4,1,2,1,3,-3,0
1541872960175630,0,-2,1,2,9,8,-5,-1
1541872960175630,1,-1,1,0,-6,-7,11,0
1541872960176631,-1,-3,-1,-2,2,1,-4,-1
1541872960176631,3,-1,-1,0,-6,0,0,0
1541872960198649,-1,-3,0,-3,-2,-4,-2,5
1541872960198649,-1,0,0,1,0,-6,4,0
1541872960199650,0,10,0,-7,7,4,7,-1
1541872960199650,0,-2,-1,-1,-2,-2,-13,-2
1541872960212698,-5,-12,1,3,-4,1,-2,-3
1541872960212698,-3,-3,-3,0,3,6,-6,0
1541872960213644,0,1,0,1,-11,-16,-1,0
1541872960213644,1,6,1,-3,6,20,10,3
1541872960235681,4,6,0,1,-6,-23,-6,0
1541872960235681,-2,-4,-1,-2,-2,1,12,-1
1541872960236680,-6,-10,-2,0,4,13,7,3
1541872960236680,-2,4,0,-3,-4,-14,-10,-1
1541872960258697,0,-7,-2,0,1,17,-5,-2
1541872960258697,5,5,0,-1,5,-5,0,4
1541872960259699,2,5,-1,-2,2,4,-4,-2
1541872960259699,-2,-3,1,3,-13,-13,2,0
1541872960272709,-2,-1,-4,-2,1,4,-1,-2
1541872960272709,0,-3,-1,-6,-3,-5,-1,-3
1541872960273690,0,0,0,0,3,10,-3,1
1541872960273690,-3,-4,-1,-1,-2,-10,0,-1
1541872960295729,-1,2,-2,-2,-13,-21,2,-4
1541872960295729,-3,0,-1,2,0,0,-11,-9
1541872960296730,2,-3,-1,1,10,7,-2,1
1541872960296730,1,0,0,-1,-3,8,8,2
1541872960318748,-1,-2,0,1,-1,2,2,2
1541872960318748,-2,-7,-1,0,-5,-2,0,-4
1541872960319749,2,7,1,0,-1,1,-3,-5
1541872960319749,-2,-3,-4,-2,3,-10,0,5
1541872960332759,-3,-4,-1,0,7,6,6,-5
1541872960332759,0,3,1,0,9,11,-11,9
1541872960333740,0,0,-2,-2,-23,-20,6,-1
1541872960333740,-5,-4,-2,-3,-2,13,23,0
1541872960355777,0,-1,-2,-2,8,-10,-23,-3
1541872960355777,0,1,3,2,-5,-9,9,-6
1541872960356760,-1,1,1,6,11,13,-30,-2
1541872960356760,3,-5,-2,-7,-10,0,22,6
1541872960378797,-2,1,-2,-1,0,-1,-17,-6
1541872960378797,0,9,-4,-6,-2,1,22,-1
1541872960379798,2,-9,2,2,-5,-10,-16,-9
1541872960379798,-3,1,-3,-1,-1,-9,8,-1
1541872960392808,-5,2,5,4,-9,2,-13,2
1541872960392808,-1,-5,-2,-6,3,-5,-17,-2
1541872960393791,0,8,-1,-3,-6,18,15,5
1541872960393791,-2,-8,-2,0,6,-17,-12,-12
1541872960415828,1,-5,-3,-3,9,26,10,7
1541872960415828,-2,0,-1,-2,-10,-24,-7,3
1541872960416824,-4,-3,-2,-4,-8,5,12,8
1541872960416824,6,4,0,0,9,-3,-16,-8
1541872960438847,-3,1,0,2,2,7,-1,-8
1541872960438847,0,-1,0,3,3,0,6,-4
1541872960439847,0,-6,0,4,4,5,30,12
1541872960439847,0,8,-3,-2,-13,1,-15,4
1541872960452857,1,1,1,1,10,-15,5,3
1541872960452857,-4,-13,-3,-5,-4,2,-4,-11
1541872960453840,-6,-6,-4,0,2,-5,9,-9
1541872960453840,2,0,3,2,0,-4,-25,-2
1541872960475878,1,-1,-2,0,-9,13,17,2
1541872960475878,2,5,-1,-3,6,-10,8,4
1541872960476858,-1,3,1,6,7,-7,-11,2
1541872960476858,0,-9,-1,-5,2,6,11,-1
1541872960498896,2,-2,-1,-7,-7,-3,-12,-2
1541872960498896,0,-5,2,4,2,5,2,3
1541872960499897,-1,0,1,-3,-2,-5,-8,-9
1541872960499897,-1,1,-3,-2,2,-6,1,4
1541872960512925,1,-1,-2,-2,-3,-3,4,1
1541872960512925,-1,5,-1,0,-4,2,7,4
1541872960513889,1,4,-5,-4,4,-5,-10,-7
1541872960513889,-3,-4,2,5,1,4,-5,-2
1541872960535926,-1,6,-3,-3,6,0,14,2
1541872960535926,-3,0,-3,-3,-12,4,-10,1
1541872960536914,-1,-4,-2,-4,-9,-2,-4,0
1541872960536914,-2,1,-2,2,18,16,-2,1
1541872960558982,-1,0,1,7,-2,-14,5,1
1541872960558982,1,0,-1,-5,0,8,-7,-2
1541872960559981,0,0,-2,-8,-7,-11,0,1
1541872960559981,-3,0,5,3,-8,-2,1,-3
1541872960571955,-1,1,0,1,1,1,-3,0
1541872960571955,-1,-1,1,3,7,5,0,0
1541872960580964,-1,-2,-1,-3,-5,-14,5,0
1541872960580964,-2,-2,-2,-5,-3,3,-5,-5
1541872960595957,0,-3,2,4,3,-1,1,2
1541872960595957,-1,-1,-1,-3,-5,1,-4,-2
1541872960597964,-1,5,0,-3,3,3,-1,1
1541872960597964,-1,0,2,6,1,-8,-5,-3
1541872960618995,-1,1,-3,-3,-6,5,3,3
1541872960618995,-1,-6,0,4,-2,-3,-4,0
1541872960619995,-1,1,-1,1,-2,2,-1,-4
1541872960619995,0,-3,0,0,6,0,-1,2
1541872960632006,-1,-1,-3,-3,-4,-2,1,-6
1541872960632006,-1,1,-2,1,2,-2,-2,-1
1541872960640996,-2,-1,-1,-1,-1,-5,-12,-3
1541872960640996,0,2,-6,-3,-6,-2,13,2
1541872960656026,1,-1,7,-1,1,8,-1,12
1541872960656026,1,-1,-4,-3,-6,-7,-11,-16
1541872960658010,-1,-3,-1,8,5,-4,15,1
1541872960658010,-2,3,-2,-1,-9,-6,-8,-2
1541872960686085,-1,-2,-5,-1,7,4,1,-1
1541872960686085,0,-3,0,1,2,1,-1,9
1541872960688049,0,-2,-1,-4,-1,21,-7,-2
1541872960688049,0,-2,-3,0,-3,-31,-7,-1
1541872960692055,-1,0,2,-2,-12,-4,-1,-8
1541872960692055,-1,2,0,-1,0,6,5,-2
1541872960701063,-3,-5,-4,-1,6,3,-4,1
1541872960701063,-2,-5,-2,-3,-5,1,0,0
1541872960716075,-2,3,-4,-4,-3,-2,-13,-6
1541872960716075,0,-1,-2,-4,2,-6,3,0
1541872960718076,0,-6,-4,0,0,-2,4,-2
1541872960718076,-2,-2,0,-2,-1,7,-1,-1
1541872960739130,-1,-2,0,2,-3,-9,-1,-2
1541872960739130,1,4,-3,2,2,5,9,-4
1541872960740089,4,10,-1,-3,-6,1,-2,13
1541872960740089,-4,-9,-1,-3,3,-14,-1,-17
1541872960752104,-6,-9,-4,-4,-3,4,1,-10
1541872960752104,-3,1,1,2,0,4,21,10
1541872960761103,1,6,1,2,3,0,-8,-5
1541872960761103,3,1,-2,-2,-2,-1,3,11
1541872960776124,0,-2,1,-1,-7,-3,-7,-3
1541872960776124,-2,-4,-1,-3,-2,-7,-16,-4
1541872960778126,-1,-6,1,1,1,5,7,0
1541872960778126,0,12,1,0,0,11,-4,-1
1541872960799144,-1,-3,-2,1,5,-4,2,0
1541872960799144,-1,1,0,3,-1,-8,-4,4
1541872960800126,-2,-1,-3,-1,2,3,1,-2
1541872960800126,-1,-3,-2,1,0,2,2,-2
1541872960812180,2,4,4,1,-5,-2,-1,1
1541872960812180,0,2,1,6,12,17,-3,3
1541872960821159,0,-3,-2,-6,-6,-20,3,-2
1541872960821159,-2,-2,2,-2,-2,-10,-9,-15
1541872960836212,2,1,-6,-2,6,2,2,5
1541872960836212,-1,0,0,0,-8,-4,-4,-4
1541872960838177,-3,-1,-2,-7,1,2,-2,-5
1541872960838177,3,0,0,3,4,0,12,12
1541872960859231,4,2,-1,-2,-6,7,-12,-2
1541872960859231,-2,-1,2,-4,4,0,-4,-1
1541872960860190,-1,-4,-4,3,0,2,7,-10
1541872960860190,0,-1,1,-2,-10,-11,-3,9
1541872960872238,2,1,-4,1,4,7,-1,0
1541872960872238,-8,-2,-3,-2,-6,-15,-12,-2
1541872960881208,-3,-1,3,-3,4,5,10,0
1541872960881208,-1,-1,-4,-6,-5,6,-10,-5
1541872960904263,2,1,1,-1,-4,-10,-9,0
1541872960904263,0,-6,0,-2,1,15,29,-4
1541872960905222,-4,-1,-3,-2,-8,-12,11,2
1541872960905222,-2,2,0,2,4,7,-25,-6
1541872960919239,-2,-2,1,0,-1,-10,8,4
1541872960919239,-3,3,-1,0,-2,7,-3,4
1541872960920234,-3,-18,-4,-1,-2,1,-13,-2
1541872960920234,2,2,1,-3,1,-3,7,3
1541872960941297,3,9,1,0,-2,4,6,0
1541872960941297,3,4,-2,1,9,9,-13,-7
1541872960943262,-5,-2,2,2,-5,-16,3,6
1541872960943262,1,-1,-3,-6,-2,0,4,18
1541872960955272,-3,-4,-2,-1,1,3,10,-31
1541872960955272,-5,-1,-1,-3,-5,-4,-1,-3
1541872960962277,0,8,1,6,2,3,-15,-5
1541872960962277,-4,-15,-5,-2,-5,-2,-1,-1
1541872960979302,-4,-4,-2,-1,5,0,-9,15
1541872960979302,4,-3,-1,-1,-9,-9,6,-3
1541872960980284,3,11,-1,-9,-1,1,5,-11
1541872960980284,1,14,1,4,-2,-1,1,13
1541872961009313,-6,-10,-1,-2,1,7,4,-1
1541872961009313,0,-6,-2,0,0,4,-20,-3
1541872961010300,1,-5,1,1,-7,-20,6,2
1541872961010300,2,3,1,2,6,13,0,-14
1541872961031370,-1,-2,-1,-1,1,-1,1,1
1541872961031370,-1,-3,1,0,-4,-9,-5,1
1541872961033349,2,1,2,3,4,23,-15,2
1541872961033349,-3,-5,0,-2,-5,-18,13,-9
1541872961038341,3,-2,1,-1,-3,-4,-18,0
1541872961038341,0,-4,-3,-6,-3,-10,-2,-3
1541872961040323,4,-1,0,-2,-3,4,-1,0
1541872961040323,2,-2,1,1,3,5,1,-1
1541872961061360,-6,5,-6,-5,-2,-1,16,-2
1541872961061360,0,0,1,0,-4,-10,3,1
1541872961063361,-1,-5,-6,-2,1,0,-13,-2
1541872961063361,-3,0,-2,0,2,5,-2,-2
1541872961075372,1,9,-1,-2,-1,-4,5,6
1541872961075372,-3,-8,-3,-4,-5,1,-5,1
1541872961084379,-5,-5,1,2,1,1,-3,0
1541872961084379,-1,-2,-1,2,4,2,2,0
1541872961098390,1,2,-3,-5,-5,-3,0,2
1541872961098390,-1,7,3,2,1,-5,-2,-2
1541872961100383,0,-1,-3,-1,-6,-1,0,2
1541872961100383,-1,0,-5,-7,-1,1,4,-1
1541872961121410,-2,-1,0,1,2,-2,-5,-2
1541872961121410,1,0,-3,-1,-3,-1,0,2
1541872961123407,-2,0,3,1,4,0,2,0
1541872961123407,-3,0,0,2,-3,-1,-3,-4
1541872961135415,-2,-2,0,-3,-1,10,-1,-1
1541872961135415,-1,-1,-4,-1,-3,-16,0,0
1541872961144428,-1,0,2,2,-1,-2,-3,0
1541872961144428,-4,-6,-4,-2,0,-1,-6,-3
1541872961158439,2,-2,0,-1,-6,-3,7,0
1541872961158439,0,1,2,0,9,8,1,1
1541872961160431,1,-1,0,1,2,2,-1,-1
1541872961160431,0,0,0,1,1,3,-3,-2
1541872961181458,-1,4,0,0,-7,-22,-11,-8
1541872961181458,-3,-2,-3,-1,-1,7,3,3
1541872961183454,-3,-4,-1,-1,0,-1,23,4
1541872961183454,3,-8,-1,0,4,12,8,3
1541872961195479,-8,-4,1,0,0,-5,-17,-4
1541872961195479,5,6,0,0,-1,0,6,2
1541872961204478,-3,5,0,-3,-1,0,-11,-6
1541872961204478,3,0,-1,1,-2,-3,7,1
1541872961218489,5,-1,0,0,1,6,6,5
1541872961218489,-8,-6,-1,2,1,-11,-11,-3
1541872961220481,-2,-7,-3,-3,0,4,-4,-5
1541872961220481,-2,4,-2,-4,-7,-4,12,-1
1541872961248514,-1,1,-3,0,4,-2,0,1
1541872961248514,1,-1,0,1,-4,2,4,-2
1541872961250506,0,1,0,0,2,4,-4,0
1541872961250506,-3,-2,0,-1,3,9,-10,-2
1541872961254502,2,-2,-3,-1,-6,-15,-5,1
1541872961254502,-1,7,-1,-2,-1,-6,-2,-1
1541872961264536,-2,4,0,-1,-5,-10,-3,-1
1541872961264536,-4,-14,0,2,4,2,1,-1
1541872961278574,-3,-5,-2,-3,-3,4,7,1
1541872961278574,1,2,1,2,3,2,-8,-1
1541872961280531,0,2,-1,1,2,5,-2,1
1541872961280531,0,8,0,-3,-10,-1,-3,0
1541872961316569,0,-2,1,-2,0,1,3,0
1541872961316569,-3,-5,-7,-6,-4,-8,-4,-5
1541872961318553,0,-2,-2,-1,-5,13,-3,0
1541872961318553,-3,-2,0,3,5,-12,19,-3
1541872961319573,-2,-4,-1,-2,-3,22,2,1
1541872961319573,-2,5,1,-1,-4,-18,-17,-7
1541872961323574,0,-2,-4,-4,-2,-11,14,5
1541872961323574,1,1,-1,1,-6,-2,3,0
1541872961338588,-1,0,0,3,7,16,9,1
1541872961338588,2,-4,0,2,5,1,3,-1
1541872961340581,1,3,-1,-2,4,8,-7,-3
1541872961340581,3,9,1,-3,-17,-13,-10,-1
1541872961361606,-4,-4,-1,-2,1,-8,-17,1
1541872961361606,-1,-9,0,1,12,18,16,0
1541872961362608,-2,-5,-2,-4,-5,-11,0,-19
1541872961362608,0,5,-4,-3,1,-7,-9,5
1541872961374619,1,-1,1,2,1,-3,-7,-10
1541872961374619,3,5,2,1,-4,10,3,10
1541872961383624,3,7,-1,-2,1,-2,0,4
1541872961383624,4,-1,-2,-2,-3,-1,2,-1
1541872961398672,-9,-6,-2,-3,-6,-6,-24,-12
1541872961398672,-7,-4,-3,-3,-2,-1,5,-16
1541872961400635,-1,-3,2,2,0,-7,12,13
1541872961400635,-2,2,-1,1,3,11,-21,-2
1541872961421658,5,2,0,0,2,-6,17,9
1541872961421658,1,-1,-1,-2,-7,2,18,-5
1541872961422650,0,4,1,2,2,8,-3,1
1541872961422650,-2,-4,0,2,10,-7,-33,-2
1541872961434668,1,-1,-3,2,-3,-9,8,11
1541872961434668,-3,3,-2,-2,5,4,9,-18
1541872961449675,5,-2,0,-2,-9,3,7,8
1541872961449675,-2,-4,-1,0,5,5,6,12
1541872961458725,-3,-4,-4,-5,7,-1,1,-4
1541872961458725,1,1,5,5,-15,-10,-14,13
1541872961460687,-2,-5,-5,-5,-1,5,7,-13
1541872961460687,-2,2,-2,-8,-5,0,-20,-4
1541872961481708,-5,-1,2,5,5,-4,-6,-10
1541872961481708,0,-2,0,-1,-3,-1,2,7
1541872961482700,-4,0,-2,1,3,-7,-4,-3
1541872961482700,-1,-3,-3,-2,-3,-6,14,-2
1541872961494716,0,-6,-12,4,-6,3,1,6
1541872961494716,-3,2,19,-1,0,3,-4,1
1541872961503715,-3,8,8,4,0,0,0,6
1541872961503715,-4,-13,-7,-3,-2,-4,-4,-9
1541872961518771,2,3,1,-6,6,17,-2,-4
1541872961518771,0,-2,-6,-3,-12,-35,-2,6
1541872961520736,-3,2,5,-3,-2,-2,-14,-11
1541872961520736,-2,-3,7,2,1,-1,10,2
1541872961541797,0,-3,-12,2,5,16,4,1
1541872961541797,1,6,4,0,1,7,-2,3
1541872961542754,1,-1,5,-1,-1,-8,-7,4
1541872961542754,1,-4,-10,-3,-3,0,9,-7
1541872961554765,-1,-2,2,-2,-7,-11,-4,-2
1541872961554765,1,0,2,-2,6,7,-1,2
1541872961563759,1,-5,-3,1,-6,-8,2,-1
1541872961563759,1,10,4,7,8,4,-10,4
1541872961578785,0,-11,0,-6,-7,-4,-3,-7
1541872961578785,1,-4,-13,-6,-6,1,4,1
1541872961592778,0,-1,-4,-2,3,6,-2,-4
1541872961592778,-1,0,4,0,0,0,-2,0
1541872961601839,1,7,2,2,-2,-4,8,-2
1541872961601839,-3,-9,-5,2,5,21,4,-1
1541872961602803,-2,-7,-11,-4,-1,-1,4,3
1541872961602803,0,4,3,0,-9,-19,-8,-1
1541872961614815,-1,4,1,1,0,1,-2,1
1541872961614815,-2,-5,-4,0,1,0,-16,-5
1541872961623807,0,5,6,1,-1,7,9,-1
1541872961623807,-2,-3,-8,-2,-1,2,18,2
1541872961646841,0,1,7,-3,-5,-4,-7,1
1541872961646841,-1,-2,-6,-1,-1,-4,3,0
1541872961647824,-2,-6,-4,1,5,-5,-20,-2
1541872961647824,0,-2,-3,-1,-4,1,10,-2
1541872961661852,1,1,4,1,-2,-4,7,14
1541872961661852,0,7,-2,-2,0,-1,-8,-11
1541872961662846,-2,1,-5,0,0,-3,-2,4
1541872961662846,-5,-7,0,-2,-3,5,-5,-7
1541872961674865,-3,-5,-1,-1,0,-6,-2,-2
1541872961674865,1,-3,-3,-3,-2,-2,-5,8
1541872961683863,0,2,1,2,-9,6,3,-2
1541872961683863,2,3,0,3,8,2,1,-1
1541872961697884,-1,0,-2,-2,0,-1,-2,-3
1541872961697884,-1,2,1,-1,1,3,3,-2
1541872961704889,1,-3,-3,-3,-3,-9,-3,-3
1541872961704889,0,0,1,-2,-8,0,-3,0
1541872961721885,-2,1,-1,-2,-1,-2,-1,-3
1541872961721885,-1,0,0,-1,0,-6,5,2
1541872961722885,-5,-8,-4,-2,0,-5,-3,-1
1541872961722885,0,1,4,-1,2,2,0,3
1541872961734915,0,-1,2,0,-2,15,-2,-4
1541872961734915,0,3,0,2,2,-14,-3,0
1541872961743902,-1,-5,-17,-3,2,0,-2,2
1541872961743902,-3,1,11,-4,-10,-7,-4,-5
1541872961758969,-1,1,-3,-1,-2,12,8,-2
1541872961758969,-1,-2,1,-1,0,7,-2,-1
1541872961760918,3,3,17,2,0,-13,-6,0
1541872961760918,-2,-8,-34,-4,1,2,1,1
1541872961788995,-2,-2,6,-4,-9,-1,1,-7
1541872961788995,-1,0,1,2,7,1,2,0
1541872961790995,0,-1,0,-3,-5,-5,-7,1
1541872961790995,-2,1,4,-1,1,15,10,-4
1541872961794947,-2,0,-4,-1,-1,-25,-11,-3
1541872961794947,-2,-3,-5,-1,-7,-4,-4,-1
1541872961803953,0,-1,2,-1,2,9,1,-1
1541872961803953,-2,-6,2,2,7,16,-11,-2
1541872961818984,0,1,-5,-1,0,-17,-6,1
1541872961818984,-2,0,3,-1,-5,4,3,-3
1541872961820988,2,9,-2,-5,-2,-5,-7,1
1541872961820988,-1,-14,-1,2,-4,6,4,-3
1541872961849008,0,2,-1,0,6,1,4,2
1541872961849008,-5,-8,-5,-3,-1,-1,-8,-7
1541872961851006,-1,-2,0,0,-4,-4,-1,2
1541872961851006,-3,2,-1,1,5,-9,-1,-6
1541872961864022,3,-1,-3,0,-2,-1,-11,0
1541872961864022,1,3,-3,-1,-4,0,2,0
1541872961866014,-2,1,-1,1,9,30,14,-3
1541872961866014,3,5,6,1,-14,-40,-23,7
1541872961879034,-1,-2,-8,0,14,23,-3,-6
1541872961879034,-2,2,10,-1,-3,-10,11,2
1541872961881016,0,-5,-17,-2,-1,-11,12,2
1541872961881016,9,4,8,-3,-2,6,-1,4
1541872961901051,0,0,0,-3,-4,7,5,4
1541872961901051,3,-3,-6,1,3,-1,-18,-3
1541872961903043,-1,1,12,2,6,1,-7,-4
1541872961903043,-3,-2,-2,1,5,-4,11,-2
1541872961931076,3,4,3,4,-2,1,16,2
1541872961931076,1,-5,-7,-7,-7,-4,-18,-4
1541872961933059,-1,3,-3,-2,-2,13,6,-1
1541872961933059,-2,-1,1,-1,-2,-29,-8,-4
1541872961938079,1,3,-5,-2,-8,-8,11,5
1541872961938079,-2,-5,-4,3,19,13,-11,-2
1541872961953086,-2,-5,1,1,-8,2,13,2
1541872961953086,-2,2,3,-2,5,12,8,-6
1541872961961101,-6,-4,-2,-1,-8,-3,-19,-2
1541872961961101,1,-3,2,-1,-3,-13,5,8
1541872961963091,-4,-1,-1,-3,0,1,10,2
1541872961963091,-2,1,0,-3,-7,5,0,-3
1541872961984119,-2,-1,2,1,-2,-11,7,-8
1541872961984119,1,3,-3,-5,-3,9,-14,1
1541872961985121,-3,-2,0,0,-1,-10,-15,-2
1541872961985121,-4,0,-4,4,3,18,23,1
1541872962014145,-2,-9,-1,-1,-1,-24,-10,-1
1541872962014145,-3,1,3,-1,2,8,25,7
1541872962015145,0,-4,-3,-2,-7,-12,-24,4
1541872962015145,1,2,-4,-2,-2,-3,-5,-16
1541872962021150,1,4,1,0,9,17,-6,3
1541872962021150,-2,-2,0,-3,0,-3,9,-5
1541872962023143,0,0,4,6,-2,-4,11,4
1541872962023143,1,2,-5,-4,7,6,3,3
1541872962044151,0,1,1,1,-1,-4,-23,-3
1541872962044151,-1,-1,-3,-3,2,0,25,-1
1541872962045165,2,0,-1,1,8,2,-17,-1
1541872962045165,0,-4,1,-4,-5,0,11,3
1541872962057180,2,-2,5,-7,-2,0,1,-12
1541872962057180,0,0,5,9,-2,-4,-32,-5
1541872962066182,-4,-5,-4,22,-1,-2,8,-4
1541872962066182,2,1,-7,-70,-4,-4,-8,3
1541872962082237,0,-6,3,-8,-3,-2,9,5
1541872962082237,0,2,-2,2,-3,1,1,-5
1541872962087242,0,-1,5,1,1,-3,-4,-3
1541872962087242,-3,-3,-2,23,1,0,-5,4
1541872962104239,-1,3,-3,-8,-2,-2,7,3
1541872962104239,1,-2,1,-5,-3,-1,1,0
1541872962111269,1,11,4,10,1,-3,-2,-1
1541872962111269,-1,1,-6,-7,1,1,-2,3
1541872962125253,-3,-1,0,-1,1,5,3,-1
1541872962125253,-1,1,-3,10,0,11,-4,1
1541872962134229,-1,1,-2,-14,-5,-19,-1,1
1541872962134229,-4,-6,-1,21,-3,4,0,-1
1541872962149255,-2,0,0,2,0,-11,2,0
1541872962149255,-1,2,1,-27,-3,6,-4,-2
1541872962150248,-1,-10,3,-8,4,3,1,-2
1541872962150248,0,4,-9,18,-8,2,-10,1
1541872962163267,5,0,8,-7,8,-3,-1,0
1541872962163267,-1,-4,-4,44,-3,-3,3,1
1541872962187286,-6,-1,0,-30,-3,12,3,-1
1541872962187286,-1,-12,-2,17,0,-14,3,-5
1541872962187286,-7,4,-8,2,-1,6,-7,2
1541872962187286,-1,1,5,2,-2,-8,-13,-2
1541872962226303,6,-2,-8,-10,0,3,-23,0
1541872962226303,1,8,13,52,4,0,27,1
1541872962227322,3,-8,12,-26,-3,2,13,-1
1541872962227322,6,1,-33,-6,-1,-7,-32,-3
1541872962231323,-5,6,6,-10,-1,-2,1,-3
1541872962231323,2,-4,1,-17,1,2,5,1
1541872962232324,-12,-8,-3,9,-3,-1,-8,-2
1541872962232324,-5,-3,3,-15,2,12,8,0
1541872962237329,2,3,1,8,0,6,20,0
1541872962237329,-1,0,1,-18,-4,1,-6,0
1541872962246317,-2,-2,-7,-10,0,9,6,-3
1541872962246317,-5,-1,9,1,-5,0,-9,-2
1541872962261348,5,5,-8,20,-3,-3,-8,1
1541872962261348,0,-3,6,40,3,-3,6,1
1541872962263331,-10,0,5,11,2,6,6,-1
1541872962263331,0,-1,3,-53,-4,-4,-22,0
1541872962284404,1,1,-3,26,-5,1,16,1
1541872962284404,1,1,-7,22,-3,-10,-14,-2
1541872962286370,0,-7,-5,-51,-6,-2,27,-3
1541872962286370,-3,1,7,6,3,20,-14,-1
1541872962297379,4,5,-2,-15,-8,-16,-5,-1
1541872962297379,-7,-2,13,-2,8,-14,-2,5
1541872962314391,1,-6,0,34,-1,3,11,1
1541872962314391,-3,-1,-9,-20,-2,9,-9,-6
1541872962320397,0,1,1,-17,-2,-3,-4,-1
1541872962320397,-1,-2,-4,-5,-7,-4,0,-4
1541872962329403,3,-2,-6,5,1,3,-15,1
1541872962329403,0,4,10,10,4,-3,6,2
1541872962351458,1,-3,-1,19,3,9,7,-3
1541872962351458,-7,-5,-6,-23,-4,-5,7,-1
1541872962353424,0,3,12,13,-6,-3,-19,-2
1541872962353424,2,0,-3,-18,-1,-6,20,3
1541872962403448,0,-2,1,-20,-2,-2,-23,-2
1541872962403448,-13,-7,-25,-13,-4,-4,13,-6
1541872962427485,4,-3,-16,-1,3,-3,-10,-3
1541872962427485,-3,-2,-2,21,4,0,20,-2
1541872962428467,-1,-2,-2,5,-2,-2,-32,-2
1541872962428467,4,2,13,-39,-8,-11,33,4
1541872962430479,-9,1,8,36,3,16,-41,-7
1541872962430479,2,-2,-7,-9,-7,-26,11,-1
1541872962433474,6,2,-1,3,5,9,-22,-2
1541872962433474,5,3,9,20,-5,4,0,-1
1541872962441496,-5,-3,-11,4,-1,7,24,-16
1541872962441496,2,3,13,4,-3,2,0,-3
1541872962448502,0,-3,11,-34,-6,-10,23,9
1541872962448502,2,2,-21,-10,4,-5,-14,-1
1541872962450485,-7,-7,-11,-11,-8,11,5,-5
1541872962450485,-1,2,7,11,-3,-16,-17,1
1541872962463515,-6,1,6,11,-6,13,18,4
1541872962463515,5,3,11,-2,24,15,0,2
1541872962465498,-7,-1,-1,-4,-6,-8,13,1
1541872962465498,0,-3,-5,1,3,3,28,3
1541872962477527,-15,0,-3,-7,-4,-9,-48,-11
1541872962477527,3,-5,-7,12,-4,4,2,-4
1541872962486515,18,1,3,1,-4,-14,-4,8
1541872962486515,-20,-1,-1,4,-11,2,-19,-20
1541872962501546,5,-1,-3,25,7,-6,29,3
1541872962501546,-37,-5,4,-40,-4,7,4,-12
1541872962503545,-1,-2,-8,-25,-2,-5,-35,2
1541872962503545,14,0,4,1,1,3,2,7
1541872962523600,-8,0,-3,17,-7,-12,5,8
1541872962523600,0,-1,4,10,-2,0,30,-5
1541872962525556,0,2,5,7,5,8,-17,-12
1541872962525556,3,2,2,-2,8,2,-17,13
1541872962537611,-5,-6,-7,0,-5,4,-1,-8
1541872962537611,10,2,-7,-1,-2,-7,10,7
1541872962547601,-9,1,5,10,-4,-10,19,0
1541872962547601,4,0,-5,1,4,-1,-20,-9
1541872962561596,2,-3,3,-7,8,0,9,5
1541872962561596,4,-2,2,3,-9,-4,-35,0
1541872962563593,-1,-1,8,0,1,2,9,-3
1541872962563593,-6,-5,-11,-2,-3,-4,-19,-10
1541872962583614,4,-2,-1,-4,-2,2,10,4
1541872962583614,2,0,-1,1,2,-1,-15,3
1541872962585606,3,2,-1,-6,3,2,-3,1
1541872962585606,8,2,7,17,-8,-3,14,2
1541872962597624,-13,-2,-7,-44,-1,-8,-16,-4
1541872962597624,4,4,2,12,6,7,-7,-1
1541872962614620,-2,-3,-7,-2,-4,-1,5,-6
1541872962614620,-1,-1,9,29,-3,1,23,8
1541872962620640,2,-2,-9,-16,-2,-2,-7,-3
1541872962620640,0,-5,1,-40,2,10,-1,4
1541872962627686,1,10,2,14,0,-16,-22,-2
1541872962627686,-1,6,0,6,-1,-1,3,8
1541872962643662,-5,10,-1,16,6,14,-1,-17
1541872962643662,-5,-30,2,12,-6,-6,30,1
1541872962645656,2,-11,-7,-1,1,4,3,-2
1541872962645656,0,-5,-1,-21,-7,2,-6,2
1541872962657676,9,14,2,13,5,-9,-49,6
1541872962657676,1,7,5,12,0,2,14,-6
1541872962673689,0,4,-4,-23,1,2,3,-4
1541872962673689,-5,-8,2,15,4,12,19,1
1541872962687700,2,0,-5,-37,-10,-19,5,4
1541872962687700,1,4,8,32,1,0,-11,-5
1541872962696700,-5,-3,2,-7,3,4,22,15
1541872962696700,-1,3,2,-16,-4,-2,-16,-7
1541872962703713,-1,-6,0,17,4,9,16,3
1541872962703713,2,1,0,-8,-1,-6,-27,3
1541872962705705,-3,3,21,8,-4,2,15,-15
1541872962705705,1,3,-21,-2,1,-6,16,25
1541872962717763,8,-2,-1,4,2,5,-7,13
1541872962717763,-6,5,-7,-9,-8,-10,-15,-7
1541872962726724,-5,-14,4,12,1,13,17,-2
1541872962726724,-6,-17,3,-1,0,-5,-29,-18
1541872962740744,0,-3,-17,-26,-3,-4,19,-4
1541872962740744,1,7,-18,-13,-2,1,-23,10
1541872962747749,3,7,-6,17,4,2,26,9
1541872962747749,2,7,-16,-26,6,27,-10,0
1541872962764763,-4,-12,-1,31,-15,-40,17,-4
1541872962764763,1,2,28,8,-4,-9,2,-8
1541872962766756,3,-1,-8,11,-1,3,-27,-6
1541872962766756,-11,-2,11,1,9,-5,-10,-11
1541872962786781,-2,0,3,-9,-6,21,11,-2
1541872962786781,-2,-6,-18,-9,2,-6,4,1
1541872962787781,0,-2,7,-23,-10,-16,3,3
1541872962787781,1,1,6,21,-8,-4,15,-13
1541872962825816,1,-3,1,10,0,3,-34,0
1541872962825816,-2,-8,6,1,-3,-9,-48,-11
1541872962826796,0,6,-10,-15,4,7,39,12
1541872962826796,2,9,4,-4,-2,7,-20,-6
1541872962827797,8,13,5,-1,2,-14,33,4
1541872962827797,5,-1,1,13,1,8,49,10
1541872962838818,-14,-20,-15,-5,2,5,-62,-11
1541872962838818,-12,-8,1,-11,-10,-17,11,-8
1541872962846814,-5,-12,-4,12,7,3,-25,-1
1541872962846814,5,8,6,9,0,10,-17,1
1541872962847812,5,5,-2,-14,-10,-1,19,-1
1541872962847812,3,3,-2,2,1,-5,5,5
1541872962868883,1,5,6,13,5,2,-16,-4
1541872962868883,1,5,-3,-6,13,1,14,4
1541872962870851,-2,-4,1,13,-6,10,5,-6
1541872962870851,2,0,3,7,-9,-22,6,2
1541872962883860,-5,-7,-11,-14,-4,-1,-18,-3
1541872962883860,-4,-2,-5,11,-10,-7,16,-5
1541872962885863,-4,-1,3,4,0,2,-28,0
1541872962885863,9,-4,-3,-5,5,7,27,2
1541872962913886,3,-1,0,-11,6,10,-14,-1
1541872962913886,-28,-6,-1,5,5,-8,-21,0
1541872962915887,15,3,-3,26,-14,-17,-11,-4
1541872962915887,2,-1,-6,-2,-16,10,31,0
1541872962936941,-4,2,8,3,22,4,-14,-2
1541872962936941,5,-1,-4,4,1,7,24,8
1541872962937902,-7,-6,-4,6,5,-10,-73,-9
1541872962937902,-1,1,0,-9,-11,-19,10,-2
1541872962989985,2,-2,1,8,1,8,12,2
1541872962989985,-1,2,2,-15,-10,-2,-30,-4
1541872962991946,-6,-4,-7,21,5,-12,52,-3
1541872962991946,10,-1,-15,-82,-5,0,-14,-1
1541872962992951,-21,-6,-1,-4,0,3,-17,10
1541872962992951,9,2,-8,14,-3,-2,4,-17
1541872962996954,2,0,7,-6,-2,11,31,5
1541872962996954,-5,3,8,39,7,-3,-41,1
1541872962997936,-5,-2,-4,-31,-3,3,-8,-4
1541872962997936,7,-4,-9,-26,-12,-7,24,7
1541872963003960,2,0,-6,20,-5,3,-2,-7
1541872963003960,-11,-3,8,-26,-6,-1,-4,-6
1541872963005961,-4,-1,-5,-4,-1,-4,-56,8
1541872963005961,-5,4,-1,13,1,-4,45,-6
1541872963027014,1,-11,1,7,-3,0,7,4
1541872963027014,-5,4,1,4,-5,1,-2,-3
1541872963032984,-6,1,-4,-9,4,20,23,4
1541872963032984,-3,-3,9,18,4,-22,-49,-3
1541872963048997,3,7,0,22,-1,2,16,-4
1541872963048997,-2,-4,-12,-6,4,6,54,4
1541872963050999,5,4,-1,-42,-6,-10,-52,-3
1541872963050999,-7,0,-3,-2,0,8,-23,-18
1541872963064045,-7,-1,8,31,1,6,34,-5
1541872963064045,9,-2,0,31,2,-11,-5,4
1541872963066012,10,3,4,-31,11,3,33,8
1541872963066012,-7,-4,-1,-2,2,23,-21,-9
1541872963087020,10,4,24,25,-13,-26,13,5
1541872963087020,0,0,-7,10,-7,6,-21,1
1541872963088011,-3,-5,-23,-32,-6,-6,37,-6
1541872963088011,0,-2,-6,-1,-2,-3,-16,10
1541872963126061,20,-2,13,-41,-11,-3,23,-20
1541872963126061,-6,6,35,44,8,2,-7,1
1541872963127062,19,2,-12,35,3,-3,-19,-4
1541872963127062,-5,-8,-33,-26,-19,-12,-13,0
1541872963128043,-2,3,31,20,10,9,13,16
1541872963128043,4,-2,-52,-41,-1,-5,-6,-11
1541872963132065,26,2,28,22,-1,-3,21,0
1541872963132065,-34,-4,-1,-17,3,-3,-64,-14
1541872963154119,10,-1,-15,35,0,-2,36,19
1541872963154119,-3,0,27,-38,4,10,-1,-1
1541872963156067,-6,-1,-13,-31,9,10,14,-5
1541872963156067,5,-2,-12,1,-4,-4,18,4
1541872963160089,-9,-2,2,66,4,-2,-31,-5
1541872963160089,5,-5,-31,-102,-8,-4,-21,1
1541872963177103,-14,-1,13,35,-7,14,15,4
1541872963177103,31,3,28,26,8,-2,-14,6
1541872963184109,-15,-3,-22,-50,-8,-14,15,-19
1541872963184109,15,4,8,84,7,1,3,12
1541872963186110,-13,-8,-18,-61,-9,-8,-1,0
1541872963186110,-4,-3,2,23,4,13,32,-6
1541872963207128,0,4,-6,-30,2,9,3,5
1541872963207128,-8,-5,10,-7,-3,-7,-7,-2
1541872963209120,7,2,4,16,-15,-5,-2,-3
1541872963209120,-1,0,12,50,3,0,5,3
1541872963221134,4,0,-13,-55,-2,-2,-11,6
1541872963221134,-5,3,-17,7,0,-3,7,-2
1541872963237152,-9,-2,0,31,1,-8,-10,-1
1541872963237152,0,-9,22,-9,-12,-7,0,-3
1541872963251164,-3,1,-14,2,2,4,-7,-3
1541872963251164,-5,-12,7,6,4,5,-18,-4
1541872963253159,-3,2,11,18,-2,-4,5,0
1541872963253159,4,8,-22,-4,8,2,6,2
1541872963274182,-8,-7,7,-34,-7,-3,-14,-7
1541872963274182,5,5,8,16,3,13,-6,6
1541872963276175,-2,1,-9,-5,3,-19,-4,-1
1541872963276175,-8,1,5,-18,2,9,35,-1
1541872963280171,1,1,0,14,-1,4,6,1
1541872963280171,2,-1,-1,-15,-6,-10,-70,-9
1541872963297198,-8,-2,4,-1,-8,-13,-11,0
1541872963297198,-5,-3,-3,20,8,0,17,8
1541872963304208,1,-3,-7,-37,-3,15,4,3
1541872963304208,-6,1,8,42,7,-7,23,-9
1541872963306201,4,0,1,-66,-7,2,-42,-7
1541872963306201,0,1,4,11,1,-10,5,-4
1541872963326221,1,1,-10,1,12,8,-11,-2
1541872963326221,-9,-4,3,2,-12,-4,30,4
1541872963328210,9,-2,1,15,3,15,-16,-4
1541872963328210,4,0,9,2,2,-14,-2,5
1541872963349245,-11,-2,-39,-38,-9,-13,-6,-8
1541872963349245,4,4,11,9,-1,4,14,10
1541872963351226,-6,-1,-7,9,3,1,15,2
1541872963351226,-2,-6,4,-31,-10,8,-21,-5
1541872963363257,-3,-3,2,15,-1,0,-11,1
1541872963363257,-1,-5,-9,-8,5,-6,11,-8
1541872963370262,-6,-2,5,18,-2,5,32,7
1541872963370262,3,-1,-3,0,1,0,5,4
1541872963386275,-3,2,19,3,-6,-14,-50,-11
1541872963386275,4,2,-19,1,-7,4,37,7
1541872963388267,4,3,12,9,10,-1,-21,3
1541872963388267,-2,3,9,6,-5,-2,22,-2
1541872963400287,0,-2,1,-13,2,27,2,-4
1541872963400287,-1,-4,-6,-17,2,-28,-3,0
1541872963409285,-3,3,6,-5,-9,-2,10,-6
1541872963409285,2,3,-10,10,-11,-9,-45,-5
1541872963424289,3,-4,7,31,2,-2,31,8
1541872963424289,-2,-10,5,-12,0,10,-5,-4
1541872963425288,-7,-3,-29,0,4,4,0,-4
1541872963425288,2,6,9,-26,3,-3,2,-3
1541872963478395,5,6,1,6,-3,-5,-14,1
1541872963478395,-4,-5,2,7,3,0,-5,3
1541872963479336,-3,-2,2,-6,-2,-7,28,-3
1541872963479336,-1,1,-9,-11,-1,7,-12,-3
1541872963480333,3,8,5,19,5,-5,-5,-2
1541872963480333,2,6,-3,-33,-5,-3,30,4
1541872963486352,-8,-24,-3,19,-2,17,-23,-8
1541872963486352,-3,-5,-6,-1,-2,-20,2,4
1541872963487375,1,-1,-1,-18,1,-15,-3,1
1541872963487375,6,10,6,7,-3,14,-8,-5
1541872963490361,6,8,-3,7,0,1,2,0
1541872963490361,-13,3,-3,-3,14,11,14,-1
1541872963514380,0,-4,1,10,-1,-1,-19,-4
1541872963514380,-2,-2,9,-9,-7,-3,7,-5
1541872963516383,2,-1,-11,24,5,-6,5,7
1541872963516383,5,-3,1,-45,-11,-4,-26,0
1541872963530394,1,-4,-17,22,-2,5,42,1
1541872963530394,-9,-4,-14,-26,15,23,-37,-5
1541872963552412,-9,0,7,-14,-4,-33,45,7
1541872963552412,-1,1,0,-6,-5,8,-25,-3
1541872963553412,-1,-5,8,5,-4,0,8,-3
1541872963553412,6,-4,0,-2,-6,1,-71,2
1541872963554394,2,9,0,27,10,9,52,-2
1541872963554394,3,10,2,19,0,1,3,1
1541872963566459,-4,-1,-3,-55,-2,-6,-29,8
1541872963566459,-9,-29,-2,43,-3,2,39,13
1541872963581436,-6,-4,-2,-18,0,-8,-24,-24
1541872963581436,-2,0,-9,17,-2,-1,-11,-1
1541872963610455,1,7,3,5,-1,9,-25,-6
1541872963610455,-1,4,1,6,-10,-14,24,1
1541872963635480,3,1,5,-11,4,3,-23,11
1541872963635480,2,-1,-1,-1,2,2,21,-2
1541872963637483,-5,0,-8,2,3,17,-6,-6
1541872963637483,1,8,6,-10,-11,-44,-13,-1
1541872963637483,-5,0,-2,2,8,31,2,-1
1541872963637483,13,-2,1,2,4,-2,-6,1
1541872963642476,-3,-5,21,20,0,-2,4,1
1541872963642476,-3,-3,-36,-31,-4,3,20,-11
1541872963643487,5,4,8,-4,-8,-6,-28,-2
1541872963643487,-13,-3,-8,-6,-1,-3,6,-5
1541872963648492,13,-1,0,1,-1,-8,19,4
1541872963648492,3,10,10,22,6,9,0,-5
1541872963649492,-2,-6,-11,-10,-3,-7,4,1
1541872963649492,1,-3,1,-13,-1,1,-42,-6
1541872963703517,-10,-6,0,5,-2,-3,17,-1
1541872963703517,9,9,1,-5,2,4,5,1
1541872963704529,2,-6,1,19,-1,-3,-1,0
1541872963704529,-5,-6,2,-9,-3,-2,22,18
1541872963710577,1,4,-2,-2,0,-1,52,-6
1541872963710577,4,6,9,17,1,-7,-94,0
1541872963711561,-1,-1,-17,-19,-10,-2,31,-3
1541872963711561,22,-8,14,19,7,5,38,2
1541872963712533,-38,0,-8,-12,4,-9,-39,-5
1541872963712533,-9,-3,-5,-10,-2,14,24,-14
1541872963755579,4,-2,3,14,3,2,-9,7
1541872963755579,2,0,-16,12,-8,-4,7,14
1541872963756580,8,-2,1,-40,-10,-9,-2,-11
1541872963756580,2,-4,7,-15,5,-1,19,-2
1541872963762584,-10,2,-1,-4,-2,-2,-35,-8
1541872963762584,-3,0,8,39,1,1,17,-4
1541872963763580,-1,-2,-5,18,6,2,-10,8
1541872963763580,-4,-3,-9,-17,-4,3,-2,10
1541872963764567,8,2,9,6,1,-1,-5,-4
1541872963764567,-13,-1,-1,-18,-3,1,0,-18
1541872963768590,10,1,0,25,-2,-8,-8,2
1541872963768590,-4,-7,5,-11,2,3,1,-4
1541872963769591,-3,3,3,-6,6,1,3,12
1541872963769591,0,-6,-10,3,-1,-2,-17,-2
1541872963791608,-1,-2,-6,17,-3,-1,-9,-6
1541872963791608,2,3,0,-23,-2,5,21,5
1541872963792609,-2,2,3,7,2,9,-10,2
1541872963792609,-8,-2,8,-31,-10,-16,-9,-7
1541872963820634,9,-1,-12,4,2,12,5,5
1541872963820634,-1,-1,-3,5,2,-16,10,2
1541872963845655,-14,-2,10,29,-4,-3,-35,-1
1541872963845655,8,3,-1,-19,-2,3,37,-1
1541872963846655,-4,-3,-14,-15,-6,1,-16,17
1541872963846655,4,2,1,21,-3,11,14,-20
1541872963847637,0,-2,-4,-43,8,0,7,-7
1541872963847637,-3,2,8,52,2,2,14,4
1541872963853644,-7,1,-1,-24,-7,-4,-12,-11
1541872963853644,1,-1,11,44,-3,16,-1,8
1541872963853644,-1,0,-6,-20,-1,-27,-31,-2
1541872963853644,7,0,10,26,-5,-6,-34,-7
1541872963865706,-13,-1,7,-43,3,11,21,3
1541872963865706,21,-5,-38,-41,-9,-9,-5,1
1541872963866666,-27,-3,16,-10,-7,-16,20,-2
1541872963866666,-11,0,-29,-23,0,19,-6,-1
1541872963965755,7,0,4,-16,0,-8,-12,-9
1541872963965755,0,0,11,8,1,-1,3,6
1541872963966747,11,0,13,20,-1,9,-18,0
1541872963966747,0,-4,-22,-5,-2,-8,19,1
1541872963967746,-7,-3,25,14,-4,0,-24,-8
1541872963967746,-3,4,-20,-56,1,-11,2,-1
1541872963995780,9,0,-4,13,-6,12,37,6
1541872963995780,-10,0,12,-19,1,-12,-51,-3
1541872963996761,4,-2,-3,-8,-7,-11,-4,-4
1541872963996761,0,6,1,16,5,4,12,1
1541872964062868,3,4,14,0,4,-13,-29,-7
1541872964062868,-4,-10,-17,-6,7,32,12,5
1541872964063824,1,5,-6,1,-9,-18,7,-1
1541872964063824,5,3,24,7,3,6,-6,0
1541872964065830,-4,-6,-34,15,-4,0,5,-2
1541872964065830,-3,4,33,-5,-9,-31,-8,-19
1541872964070840,5,2,-25,-8,6,16,-4,20
1541872964070840,-13,-19,35,36,1,9,10,2
1541872964071830,1,3,-22,-25,-5,3,5,3
1541872964071830,-6,-2,-6,-25,2,5,-10,1
1541872964072823,-4,-3,6,0,-1,-4,-11,-2
1541872964072823,1,4,9,22,-2,1,11,1
1541872964092858,3,7,5,9,-1,2,8,1
1541872964092858,2,4,0,0,-2,-3,-2,-2
1541872964094858,-4,4,-12,-45,-5,-13,-24,-6
1541872964094858,-2,-23,-10,4,-1,-5,3,1
1541872964095844,1,-11,-3,-7,-2,-4,-6,-4
1541872964095844,5,6,-1,20,4,6,-5,2
1541872964123864,-3,6,1,1,0,6,21,-12
1541872964123864,-8,8,15,52,1,-1,-11,-5
1541872964124867,-3,-11,-22,-66,-3,-7,-1,-9
1541872964124867,-1,-8,-13,-13,0,2,1,4
1541872964159912,1,-14,7,33,1,-1,0,4
1541872964159912,0,13,22,-6,-3,0,8,0
1541872964181927,2,-7,-16,25,-8,-4,-13,-6
1541872964181927,-1,13,3,-8,-10,-6,-1,-6
1541872964220963,2,1,18,29,0,-2,4,4
1541872964220963,1,-9,-7,-18,10,2,11,-8
1541872964221954,3,1,9,16,0,4,-2,8
1541872964221954,-3,-5,-6,-2,-4,-5,0,-3
1541872964249986,4,-2,4,-27,0,-1,5,5
1541872964249986,0,3,-7,43,3,2,-11,-3
1541872964250985,-5,13,9,1,-4,-4,-9,-11
1541872964250985,-4,-10,8,-9,5,6,14,5
1541872964251979,-2,3,14,19,0,-2,3,1
1541872964251979,5,0,-1,-19,0,1,9,2
1541872964252988,-8,-7,-21,-20,-3,12,29,14
1541872964252988,-2,2,12,-3,-2,7,-13,-2
1541872964256988,0,-5,-14,21,-6,-10,14,-7
1541872964256988,-4,-23,-15,-13,2,-9,-19,-3
1541872964258975,-1,-2,6,10,-2,-1,-13,-8
1541872964258975,0,13,-4,10,-2,2,2,2
1541872964295059,4,-1,2,5,3,-3,8,7
1541872964295059,-1,5,-6,0,-5,3,-6,-6
1541872964295059,1,4,-11,17,2,5,7,-1
1541872964295059,-7,-10,-6,-20,-8,-4,-7,-8
1541872964310036,4,0,4,-31,-5,-12,3,-1
1541872964310036,-4,-2,-3,10,1,-2,-23,1
1541872964311021,-1,-4,12,8,4,5,21,-8
1541872964311021,4,11,13,10,3,-5,-46,-16
1541872964313039,-1,-4,-15,9,1,3,70,27
1541872964313039,-5,-3,-19,13,4,7,-17,-8
1541872964324048,1,8,6,-40,-10,-13,1,12
1541872964324048,10,5,15,-1,6,13,19,-12
1541872964326040,1,6,-5,1,-8,-25,-31,-12
1541872964326040,-2,-5,-2,3,3,9,9,9
1541872964331044,-3,6,12,-3,-2,-2,-6,-6
1541872964331044,-11,-19,-33,-12,0,2,11,4
1541872964398109,5,20,3,5,6,10,-12,-1
1541872964398109,-2,2,5,-14,-7,-8,4,-7
1541872964408117,2,-1,-9,-16,1,-4,-11,-4
1541872964408117,1,6,10,7,-1,-1,10,4
1541872964410111,1,-3,-4,-2,-7,2,-8,-4
1541872964410111,-1,-10,-9,20,7,-1,-12,3
1541872964410111,-5,-4,6,-1,0,8,3,-1
1541872964410111,-2,-10,-1,11,3,-5,13,3
1541872964513199,-2,-3,-4,-30,-14,2,-27,5
1541872964513199,1,-1,0,-3,9,4,-5,-3
1541872964514185,-1,-1,7,-15,10,8,12,-6
1541872964514185,2,2,-1,3,8,1,-21,2
1541872964520209,-11,-2,-18,18,-4,4,37,16
1541872964520209,12,-3,13,-35,-9,-6,-16,-21
1541872964521192,6,-1,15,13,7,2,2,-2
1541872964521192,25,-6,-49,-48,-14,-24,9,1
1541872964522192,-10,-1,24,36,10,15,12,-8
1541872964522192,13,2,-1,10,0,-1,-5,3
1541872964534221,-7,-7,-14,-15,2,-13,-16,8
1541872964534221,-2,0,0,11,4,10,0,1
1541872964535222,7,2,2,4,7,-1,-14,-17
1541872964535222,-3,1,3,28,1,-7,-20,14
1541872964595274,-5,-4,-2,-4,-9,12,41,-12
1541872964595274,-22,-1,17,19,-1,-4,-16,-7
1541872964596253,17,-2,-14,11,10,10,43,9
1541872964596253,29,-3,3,-13,-10,-12,-43,17
1541872964598275,-23,0,-10,-18,5,2,-3,-9
1541872964598275,12,1,3,8,-3,-10,-21,0
1541872964609285,-12,7,-2,-15,-2,8,41,0
1541872964609285,5,-1,9,-2,3,10,-25,-12
1541872964617281,1,-18,1,14,4,1,20,14
1541872964617281,-6,-6,-4,3,-6,-1,2,-9
1541872964646348,8,5,-40,-59,-17,-4,-17,-3
1541872964646348,-3,2,4,39,16,9,3,-5
1541872964663327,3,-3,-1,-20,4,-7,5,12
1541872964663327,-13,-3,8,-1,-7,4,1,-9
1541872964664329,14,1,8,43,4,-8,-9,1
1541872964664329,-31,-5,8,-15,-6,0,3,-19
1541872964665310,27,3,-7,-10,-1,0,21,23
1541872964665310,-15,-4,-2,-1,-6,-2,26,4
1541872964671315,28,4,4,-19,5,-1,-9,1
1541872964671315,0,5,-7,-11,-5,0,-20,2
1541872964684344,-65,-9,-40,-2,1,3,-3,1
1541872964684344,21,7,18,-31,2,3,7,8
1541872964685326,-15,-1,-5,-29,-3,-3,16,-3
1541872964685326,10,3,-8,10,1,0,-72,-4
1541872964701349,4,3,44,25,3,-9,37,-5
1541872964701349,-4,-7,-29,-11,-9,5,-10,-1
1541872964702359,-3,-5,-12,19,-8,-20,-17,1
1541872964702359,11,5,-1,-13,14,13,14,-4
1541872964707354,-26,-3,12,-10,-5,6,7,-3
1541872964707354,8,-2,-8,6,9,5,-23,17
1541872964708364,3,-5,-3,-5,-8,-4,-4,-16
1541872964708364,-11,-3,-1,1,3,-1,25,5
1541872964738380,7,-3,0,47,2,-1,-53,-2
1541872964738380,19,8,27,-9,2,-1,31,-1
1541872964739390,-15,-11,-31,-10,-3,1,-4,7
1541872964739390,-16,-1,-1,-6,-1,-5,7,-4
1541872964752401,28,3,-4,2,-2,-1,-10,3
1541872964752401,-9,-6,6,4,-3,-8,1,-3
1541872964753401,2,4,17,18,3,1,15,-6
1541872964753401,-7,3,-2,64,8,7,-12,5
1541872964774418,3,-2,-17,-62,-21,-4,16,-3
1541872964774418,34,2,-1,16,12,1,-20,-1
1541872964775419,-29,-5,-1,-11,-7,1,11,-8
1541872964775419,11,2,8,18,5,3,3,1
1541872964796437,-32,-8,0,28,1,-4,-30,-5
1541872964796437,-26,-11,-20,-33,-6,-5,4,-8
1541872964797418,3,2,10,-1,5,6,7,4
1541872964797418,1,-2,-7,-37,-10,-4,-7,-3
1541872964811451,19,6,8,25,6,-1,5,0
1541872964811451,-6,4,0,-6,-4,1,14,6
1541872964818455,5,2,13,23,2,0,-12,-2
1541872964818455,-4,-3,-15,-38,-7,-5,-26,1
1541872964826461,1,3,8,-3,5,2,58,-5
1541872964826461,-3,2,13,16,-4,-2,16,0
1541872964826461,7,8,-6,6,2,2,-50,-6
1541872964826461,-2,-13,-20,-59,-5,4,33,13
1541872964850478,2,3,-6,-13,-2,-3,-10,-20
1541872964850478,2,3,1,23,4,-4,-23,0
1541872964851478,3,3,4,4,2,5,30,9
1541872964851478,-8,2,7,4,-3,-5,7,-13
1541872964887512,4,-2,-7,-2,-7,-1,-10,11
1541872964887512,-3,-7,-2,13,3,2,2,-2
1541872964887512,13,3,-4,-28,-9,-4,3,-2
1541872964887512,-16,-4,-7,10,-1,-6,9,-6
1541872964894517,6,1,0,-8,1,2,-45,-4
1541872964894517,7,6,4,9,-5,5,-11,2
1541872964901522,-5,-5,-5,8,3,9,-6,-1
1541872964901522,5,2,1,2,-6,-20,36,-7
1541872964924542,-19,5,-2,-1,4,1,-18,-6
1541872964924542,-9,-6,-7,-2,-3,6,23,2
1541872964925539,32,4,-2,-37,-2,-7,13,12
1541872964925539,-44,-4,2,-3,-13,-1,-9,4
1541872964931548,19,7,3,16,9,-1,-9,-8
1541872964931548,-11,0,-4,-23,-8,2,13,-5
1541872964932549,3,-2,2,13,9,4,-11,-4
1541872964932549,10,-2,4,16,-2,-5,-10,-1
1541872964961609,-5,-8,-5,-12,-2,-8,23,11
1541872964961609,3,-2,-4,7,-2,4,-14,-1
1541872964962556,-9,-7,-1,8,0,-3,-3,-3
1541872964962556,7,3,2,-7,7,7,-10,-3
1541872964976585,-1,1,5,10,-3,2,-1,0
1541872964976585,5,2,-7,0,4,3,-10,-4
1541872964977585,-10,-8,4,13,-11,-16,3,-5
1541872964977585,2,-9,-4,-12,10,7,-8,-4
1541872964999604,16,1,-5,-34,0,7,21,3
1541872964999604,-4,-2,2,-2,-17,-21,-12,-2
1541872965000586,-11,-1,-2,12,-4,4,13,1
1541872965000586,7,6,2,9,3,-2,-16,-4
1541872965005604,2,6,-4,2,-2,2,-17,-3
1541872965005604,3,-3,-3,-8,4,4,10,10
1541872965031631,-7,3,1,-15,-4,-11,16,-10
1541872965031631,5,0,-9,-21,-9,-2,-14,4
1541872965032632,6,-1,1,13,6,6,0,14
1541872965032632,-12,4,3,8,2,2,1,-10
1541872965059689,0,-1,-2,3,5,-3,-8,4
1541872965059689,4,1,4,-6,0,3,9,-4
1541872965060635,-8,0,5,26,1,8,-12,-5
1541872965060635,-9,-14,-11,-26,-12,-27,50,7
1541872965062657,-4,-1,1,-19,1,13,-67,5
1541872965062657,9,-4,-6,-1,-12,-8,4,-4
1541872965090660,0,0,-5,-10,-1,-3,0,-4
1541872965090660,-20,-4,3,30,19,8,3,-15
1541872965092672,-9,-4,-12,-62,-7,0,-6,-23
1541872965092672,-1,-2,-5,16,0,-2,-1,9
1541872965092672,3,7,5,19,-3,-3,23,4
1541872965092672,13,-3,0,-39,-4,1,-33,6
1541872965104686,-11,0,0,32,5,3,24,-11
1541872965104686,-8,7,8,8,0,2,4,-13
1541872965111677,5,-8,-19,-12,-3,-4,10,14
1541872965111677,2,-3,1,13,-8,-9,-1,5
1541872965134751,2,-7,7,-10,-1,10,-11,7
1541872965134751,4,7,14,11,12,-1,-13,-9
1541872965135697,-6,-7,1,2,-6,-5,4,-6
1541872965135697,16,20,2,33,7,5,3,1
1541872965137719,9,13,-17,-20,7,-5,-7,5
1541872965137719,-22,-35,4,4,-14,3,6,-2
1541872965156734,-5,-39,-16,-19,3,-4,2,-3
1541872965156734,1,13,12,-15,-11,1,-14,16
1541872965158736,5,-4,0,48,-2,0,5,-17
1541872965158736,-9,-24,-3,-21,2,-1,2,1
1541872965240840,0,-9,-4,-7,-4,-8,-7,-11
1541872965240840,2,-12,24,-8,-4,2,-8,-3
1541872965241843,7,5,-1,24,0,-4,5,12
1541872965241843,0,-12,-39,-11,-5,-4,2,1
1541872965242786,-1,9,-2,33,-4,-3,-6,-2
1541872965242786,3,6,24,-25,0,1,2,0
1541872965254795,4,5,-14,20,12,4,5,7
1541872965254795,-3,5,14,6,-6,-3,-5,-3
1541872965262856,-1,12,6,-5,-5,2,1,2
1541872965262856,-3,-4,-22,-7,3,18,2,-2
1541872965263818,5,5,7,-25,2,-1,29,-16
1541872965263818,15,-2,-13,-7,-1,-1,-25,-6
1541872965264818,-23,-2,-9,-10,1,-1,-12,1
1541872965264818,6,13,15,37,3,-4,1,-9
1541872965292846,-10,-1,-2,-47,-7,-1,9,3
1541872965292846,4,-4,-14,3,1,-3,12,2
1541872965294839,-5,3,20,19,1,-1,27,8
1541872965294839,15,9,2,30,-2,5,-18,-4
1541872965295849,7,0,-3,-26,-2,-7,-52,1
1541872965295849,6,-5,-1,14,0,3,47,4
1541872965307849,8,1,0,-12,-5,-4,14,-16
1541872965307849,-9,8,-1,20,8,4,-2,3
1541872965329876,21,1,18,10,1,1,-21,0
1541872965329876,5,-11,-24,-31,-3,-8,-4,-12
1541872965367908,12,-1,3,18,-8,1,-1,-6
1541872965367908,-33,1,4,0,2,1,20,14
1541872965368900,3,2,-10,39,-3,0,1,-2
1541872965368900,-21,0,4,-56,-8,-6,-29,-4
1541872965370910,3,-7,-6,12,0,0,7,3
1541872965370910,10,0,-5,11,5,4,16,-8
1541872965390963,0,-2,0,-18,-7,-10,-49,-3
1541872965390963,-22,1,-14,5,0,-9,11,11
1541872965391963,56,3,-6,36,2,4,20,2
1541872965391963,-12,-1,9,-28,-6,-3,5,3
1541872965420988,5,-3,2,5,-2,-5,-16,11
1541872965420988,-11,2,-3,-30,1,6,13,-1
1541872965421949,3,-2,0,21,-5,-6,14,-10
1541872965421949,-8,4,3,4,1,-10,-12,0
1541872965422935,-18,1,-8,0,8,4,53,2
1541872965422935,-3,1,4,17,-4,-5,-24,-5
1541872965502062,-4,-2,5,-15,-5,0,-3,-6
1541872965502062,7,-1,3,12,2,-10,7,-5
1541872965524036,2,0,2,9,1,6,-3,10
1541872965524036,-3,3,-4,-7,-6,4,5,1
1541872965615111,-11,-5,1,-15,2,-4,-11,-3
1541872965615111,4,5,2,8,-3,4,5,-3
1541872965615111,-6,1,-2,-26,1,-10,-1,-2
1541872965615111,-5,-24,-13,16,-3,1,9,-5
1541872965646139,-28,7,10,-9,-10,0,-22,-10
1541872965646139,3,-3,1,26,9,0,30,-5
1541872965648130,12,-35,-42,-13,-8,4,-3,13
1541872965648130,-15,15,30,25,6,19,2,-2
1541872965720197,7,7,-9,-26,-12,3,40,10
1541872965720197,4,-14,-9,55,2,3,-77,14
1541872965721190,-18,-15,-31,-8,-9,-7,-22,-10
1541872965721190,-2,12,-8,9,-5,-18,46,0
1541872965723186,2,12,54,17,-8,-13,-46,-26
1541872965723186,6,-9,-29,-5,-12,18,22,20
1541872965951372,-6,1,4,-21,33,-8,-7,-13
1541872965951372,2,2,2,-11,6,-3,2,-7
1541872965983398,5,-11,-3,8,-14,-4,-15,-7
1541872965983398,-1,1,3,-15,12,-6,16,15
1541872965984411,30,11,15,21,12,1,-25,7
1541872965984411,-71,-7,-33,0,-1,4,2,-18
1541872965985397,13,1,20,-72,-13,-8,-5,-3
1541872965985397,4,0,12,10,-3,9,26,3
1541872966020481,-17,-14,-51,-55,-6,-3,-7,15
1541872966020481,27,9,4,7,1,0,6,15
1541872966022442,-2,1,-23,-51,-6,-5,33,-16
1541872966022442,-4,-3,9,-4,3,5,-26,24
1541872966035458,-12,-5,-13,-12,-6,10,9,-11
1541872966035458,7,-1,7,17,0,-12,11,6
1541872966035458,-5,2,5,25,-1,-2,-19,-4
1541872966035458,0,4,-4,-36,-4,-12,10,4
1541872966051460,13,-9,3,26,1,-5,-2,13
1541872966051460,3,0,-14,-11,-10,11,-10,-7
1541872966053468,-12,-3,7,11,0,-29,18,13
1541872966053468,10,9,-1,-9,3,9,-8,5
1541872966073525,-4,3,2,14,-1,10,-7,-26
1541872966073525,3,-2,9,-18,0,0,17,25
1541872966074486,-12,-4,-10,13,-8,-4,-9,-6
1541872966074486,12,1,0,-3,5,1,7,6
1541872966075472,-5,-7,-1,1,-5,-1,-14,-3
1541872966075472,-6,-2,-4,8,4,-12,-6,-9
1541872966126523,29,5,10,-18,-4,-9,-20,-6
1541872966126523,-10,-3,-2,1,-3,7,15,4
1541872966127534,-2,5,-10,-20,3,1,10,13
1541872966127534,1,0,8,27,-8,-6,1,-15
1541872966177557,15,-8,2,11,2,6,8,5
1541872966177557,-35,-11,3,-10,2,7,-9,-8
1541872966185582,8,14,-5,30,-7,-20,-13,5
1541872966185582,-4,-2,-3,-44,-1,-2,8,0
1541872966187564,-5,0,-1,8,2,-5,-15,-16
1541872966187564,-1,5,8,18,-3,1,4,4
1541872966230618,-3,0,-4,-27,-5,-16,-14,4
1541872966230618,-12,0,-7,-11,6,14,17,3
1541872966231620,-5,-5,9,17,-2,23,-7,2
1541872966231620,9,2,9,12,2,-17,-8,-3
1541872966233602,-9,4,-7,-24,-4,6,21,-5
1541872966233602,9,3,-4,29,-2,-13,-36,-4
1541872966238626,-5,-7,-19,-28,2,7,7,1
1541872966238626,-9,-13,1,10,-1,-1,-1,-3
1541872966239608,-2,-1,1,14,-2,-4,-8,-3
1541872966239608,-3,8,12,12,4,8,14,4
1541872966402796,19,-8,-8,3,-6,-24,3,0
1541872966402796,-9,0,-5,-18,-2,5,20,0
1541872966477857,2,0,12,25,4,-7,-19,7
1541872966477857,-5,4,4,8,-2,7,3,-1
1541872966479805,10,0,-4,-8,0,6,-5,-5
1541872966479805,-3,-4,2,40,4,-4,-3,2
1541872966480811,-8,1,1,-33,-3,-6,10,-1
1541872966480811,13,-1,-9,-10,-6,-10,-9,1
1541872966567897,-14,1,-8,-54,-4,7,7,2
1541872966567897,4,-1,-2,16,0,-4,-9,-6
1541872966568878,8,-3,-12,-40,-12,-4,-6,2
1541872966568878,-14,-5,2,8,6,11,-8,-7
1541872966569898,-5,4,1,25,6,-2,10,-6
1541872966569898,1,1,-1,-27,-4,3,-2,5
1541872966693997,-7,-1,-4,-4,-6,-2,-25,-3
1541872966693997,6,-6,-4,-6,7,12,28,7
1541872966771064,-10,-2,2,-6,-7,-25,1,-5
1541872966771064,6,-1,5,21,4,8,-1,1
1541872966771064,-22,-4,-11,-17,-1,-2,4,2
1541872966771064,-1,-2,1,11,1,11,-2,4
1541872966772046,6,-1,5,3,-1,4,4,-4
1541872966772046,-12,-5,-4,-24,-9,-2,7,1
1541872966813134,7,5,3,24,5,-5,18,3
1541872966813134,-1,-1,-15,-66,-8,7,-48,-5
1541872966867138,-4,-3,0,1,3,4,-3,3
1541872966867138,23,6,6,8,-4,-2,4,-5
1541872966926227,3,3,9,36,1,3,-5,0
1541872966926227,-2,-1,0,3,1,-2,-21,-9
1541872966988243,6,1,3,-16,-4,26,-10,-1
1541872966988243,-7,8,4,25,5,-19,1,-2
1541872966990226,5,-6,-4,-11,-4,1,-9,-4
1541872966990226,6,-9,3,-5,-6,2,-5,1
1541872967011256,0,0,-8,-19,-5,-5,-3,-6
1541872967011256,6,-1,-3,0,9,1,-7,-3
1541872967011256,8,0,1,5,10,8,41,3
1541872967011256,-25,-3,-2,22,-3,2,-17,-3
1541872967012243,-21,-4,1,15,-2,0,-1,0
1541872967012243,16,3,3,15,1,-3,-18,-6
1541872967013264,3,4,2,9,9,5,-9,3
1541872967013264,-17,-5,1,-1,-6,-9,3,4
