timestamp,emg1,emg2,emg3,emg4,emg5,emg6,emg7,emg8
1541874448780654,4,2,3,-1,-2,-3,-1,1
1541874448780654,0,-2,1,0,-3,-3,-2,-5
1541874448781655,4,-2,-5,-3,-7,-8,-6,-6
1541874448781655,7,3,5,0,-2,-2,-1,-5
1541874448782655,1,-2,-1,7,-2,-7,-4,-5
1541874448782655,3,0,-3,-9,-2,-3,-3,-4
1541874448783655,4,4,6,-5,-1,0,0,0
1541874448783655,0,1,-1,0,-3,-1,-3,-3
1541874448794667,-2,-2,-5,15,1,-2,1,-2
1541874448794667,-1,1,-4,-21,1,0,0,0
1541874448795664,1,2,1,9,2,2,2,-1
1541874448795664,0,-1,-3,9,-1,1,-1,-1
1541874448803671,-1,-1,0,-7,1,3,1,7
1541874448803671,-1,0,-2,2,2,2,0,-1
1541874448808678,-6,-4,-4,-3,-2,-1,-3,-4
1541874448808678,-2,-2,-3,0,1,-2,-1,2
1541874448836697,-3,-2,-2,0,0,1,0,-1
1541874448836697,-2,-2,3,5,0,-1,0,5
1541874448837698,-3,-3,-2,-12,-2,0,2,0
1541874448837698,-3,-2,-1,3,1,1,1,-1
1541874448854711,-3,-3,1,-1,2,0,-1,1
1541874448854711,-2,-3,-3,4,-1,-1,-1,-1
1541874448855712,-4,-2,-3,0,4,-1,-2,-1
1541874448855712,-2,-3,-6,0,0,0,0,0
1541874448869785,-1,0,8,2,0,-1,-2,-3
1541874448869785,-3,-2,1,1,-2,-1,-1,-2
1541874448869785,0,2,8,-1,-4,-3,-1,-2
1541874448869785,1,0,-11,2,4,1,0,1
1541874448883790,-1,0,-3,-4,-2,2,-1,-1
1541874448883790,-3,-2,-4,4,-2,-3,-2,0
1541874448892757,4,4,8,-4,0,2,3,4
1541874448892757,-2,0,0,-2,0,2,-1,-5
1541874448907815,7,3,3,-6,-2,-1,1,-1
1541874448907815,-5,-3,-1,-10,-9,-6,-4,6
1541874448962806,2,1,-10,4,2,-6,-3,6
1541874448962806,8,2,12,-13,-3,4,5,11
1541874448963816,-6,2,0,-4,-2,-1,-4,-27
1541874448963816,-5,-5,10,-3,-2,1,-2,-4
1541874448981866,-1,-2,-21,9,5,2,2,-1
1541874448981866,0,0,0,6,4,0,0,3
1541874449013890,1,-1,-6,0,-1,-2,1,22
1541874449013890,-1,0,-1,-3,-2,-1,-1,-6
1541874449014853,-3,-13,-4,1,-2,0,-4,-2
1541874449014853,-6,-3,-6,-1,3,0,0,4
1541874449217002,5,1,15,-6,-2,3,1,-1
1541874449217002,-5,1,5,0,-2,-3,1,0
1541874449217998,2,-2,-1,1,0,-5,-7,-4
1541874449217998,3,4,0,4,1,0,0,4
1541874449457199,2,2,11,1,2,0,1,-2
1541874449457199,1,0,3,0,0,1,3,15
1541874449459198,-4,0,-9,-1,0,-1,-2,-1
1541874449459198,-2,-6,-6,-2,0,-1,-2,-6
1541874449479222,15,-16,0,-1,4,6,8,21
1541874449479222,-1,22,27,13,0,0,0,-3
1541874449480202,-8,28,-17,-11,-4,-3,-4,-2
1541874449480202,-1,-9,6,4,-2,-2,-1,-2
1541874449499217,2,0,-1,-2,-2,-1,-6,-6
1541874449499217,-6,0,-3,-1,-2,-3,-5,-5
1541874449516286,0,2,13,0,-3,0,-1,2
1541874449516286,3,-5,-15,-3,-2,-1,5,36
1541874449518272,-4,-3,-5,-3,-4,-4,-10,-13
1541874449518272,0,-2,2,-1,-1,0,4,20
1541874449518272,-1,2,-1,2,0,-1,-3,-8
1541874449518272,4,5,7,1,0,1,5,11
1541874449524293,-3,-7,1,-4,-5,-4,-5,-8
1541874449524293,0,-2,-3,1,1,-1,1,-1
1541874449525240,-2,-2,-4,-1,-1,-1,-2,-1
1541874449525240,3,3,1,0,1,2,4,4
1541874449546257,-2,-1,-5,-2,-4,-4,-5,-2
1541874449546257,-1,-2,-2,-1,-2,-1,0,10
1541874449547293,-2,-3,-3,-1,-2,0,-1,-4
1541874449547293,4,4,3,3,2,3,4,16
1541874449548272,-5,-4,-3,-2,-1,-2,-6,-9
1541874449548272,-3,-1,-4,-3,1,1,1,3
1541874449560323,-2,-4,-2,0,0,-3,-2,-2
1541874449560323,0,1,2,-1,-1,1,1,3
1541874449561268,-2,-2,-2,-1,0,-1,-2,-2
1541874449561268,0,2,0,9,-1,1,-1,1
1541874449582302,-2,-2,-1,-8,-3,-2,1,-1
1541874449582302,2,-1,0,6,3,10,3,7
1541874449584303,0,-1,-3,-9,-4,-17,-4,-3
1541874449584303,2,-2,0,0,-1,2,0,3
1541874449596293,1,2,3,8,2,14,1,-2
1541874449596293,-1,1,1,-4,-1,-18,-1,3
1541874449603313,1,-2,0,4,-2,7,1,-3
1541874449603313,1,0,-1,9,4,2,0,-2
1541874449620315,1,-3,-2,-6,-3,-3,-5,-1
1541874449620315,1,0,0,4,-1,-2,0,-3
1541874449621314,0,-3,-1,-10,-4,-2,-3,-2
1541874449621314,0,-1,0,1,-7,-6,-2,-1
1541874449643385,0,-1,-2,-1,1,1,-2,-3
1541874449643385,2,1,1,-2,2,-3,-1,2
1541874449644333,1,2,1,5,-2,-4,-1,-3
1541874449644333,-1,-2,-4,-8,-4,3,-2,-1
1541874449696386,0,0,-1,1,-5,-6,-1,-3
1541874449696386,0,-3,0,-4,-1,1,-2,-2
1541874449698381,6,5,2,2,-1,2,2,-4
1541874449698381,3,1,0,-1,4,-1,0,-2
1541874449698381,-3,-1,2,-5,2,0,-2,-5
1541874449698381,2,2,-3,3,-1,2,5,9
1541874449719392,5,4,1,5,4,3,0,1
1541874449719392,0,0,-2,-6,-3,0,3,1
1541874449720393,-7,-8,12,4,2,-4,-3,-3
1541874449720393,-10,-10,-28,-11,-8,-4,-6,48
1541874449763479,17,15,11,5,6,13,17,-35
1541874449763479,-3,1,-3,-2,2,-5,-4,-4
1541874449764427,-8,-4,-2,-1,-1,0,-9,-13
1541874449764427,2,1,7,-1,1,6,7,-4
1541874449766431,-16,-10,-5,-4,-3,-5,-9,8
1541874449766431,3,3,3,-1,0,1,4,13
1541874449770450,-3,1,-7,-1,-3,-2,-4,-15
1541874449770450,-3,-5,0,1,3,0,-5,-12
1541874449772451,-6,-5,-1,-2,3,2,1,5
1541874449772451,-3,-5,0,0,3,3,-2,-7
1541874449784496,2,2,-6,-1,-1,-1,4,8
1541874449784496,1,3,4,1,-3,-4,-1,2
1541874449785462,-5,-7,-4,-3,-4,-6,-8,-11
1541874449785462,-2,0,0,-3,-2,-5,-4,-6
1541874449799473,5,0,2,1,1,-1,2,2
1541874449799473,1,-2,5,-1,0,-1,-2,-22
1541874449800475,-2,-4,-7,-4,-4,-4,-9,3
1541874449800475,3,-2,4,-3,-1,0,1,4
1541874449821489,0,2,-2,0,-1,0,1,2
1541874449821489,-4,-2,-1,-1,-5,-2,-2,-1
1541874449822473,1,0,-1,-1,-4,-4,-1,3
1541874449822473,5,1,2,-1,-5,-6,-4,-2
1541874449844544,9,6,0,-3,-4,-6,-5,-6
1541874449844544,6,4,3,0,-1,-1,-1,-3
1541874449845509,2,-2,1,-1,-1,-3,-3,-2
1541874449845509,-1,-1,-2,-1,1,0,-2,-8
1541874449859555,-1,-4,-1,-2,-2,-2,0,3
1541874449859555,0,-4,-3,-2,-1,1,-3,-3
1541874449860530,-1,0,-2,1,2,1,1,2
1541874449860530,-6,-3,-3,-1,1,2,-1,2
1541874449881573,-4,-2,-2,0,2,2,1,3
1541874449881573,-4,-1,-3,-1,2,1,2,2
1541874449882519,-5,-3,-2,0,0,2,0,-1
1541874449882519,-4,-2,-2,0,-2,1,1,1
1541874449904590,-3,-1,-3,2,0,-1,1,2
1541874449904590,-3,0,1,-1,0,0,-1,-4
1541874449905565,-4,1,-1,-1,-2,-2,-3,0
1541874449905565,-2,-1,-3,0,-2,-3,-1,0
1541874449934579,0,-2,1,-1,-1,-2,-1,-1
1541874449934579,-2,-1,-1,0,-4,-1,-3,-3
1541874449935562,1,1,0,-2,0,-2,-1,-1
1541874449935562,0,-4,-1,0,0,0,-1,0
1541874449941584,-1,-1,4,-2,0,0,0,-1
1541874449941584,-1,-3,-1,-1,0,-2,-2,-2
1541874449942585,-1,0,1,-2,0,-1,-1,-1
1541874449942585,0,1,4,-1,0,-2,-1,-3
1541874449964638,1,2,1,0,0,0,1,2
1541874449964638,-3,-4,-4,-2,-2,-2,-3,-3
1541874449965599,-2,0,1,0,-3,-4,-2,-1
1541874449965599,0,-2,-4,-1,1,0,-1,-1
1541874449986619,-1,0,-4,-2,-2,-2,-2,-2
1541874449986619,1,-1,-1,-4,-1,-1,-2,-1
1541874449987610,0,-1,-1,4,1,2,-1,0
1541874449987610,-2,0,-3,-4,-5,-4,-2,1
1541874450001631,0,-1,-2,2,6,1,1,0
1541874450001631,1,2,4,3,1,1,1,1
1541874450002632,-3,-6,-4,-4,-4,-4,-4,-5
1541874450002632,0,0,-1,4,2,-1,1,1
1541874450024649,0,0,-2,-11,-3,0,-1,-2
1541874450024649,1,1,0,3,0,0,-1,0
1541874450024649,0,2,2,-1,-1,-1,1,2
1541874450024649,-2,0,2,1,-2,0,0,0
1541874450046667,-2,-3,-4,-20,-1,0,0,-1
1541874450046667,-1,-2,-3,10,2,-2,-1,0
1541874450047668,-1,0,-2,-3,0,1,2,0
1541874450047668,0,-1,-1,6,2,0,-2,-3
1541874450069684,-2,0,2,-2,0,-1,-2,0
1541874450069684,-2,-3,-3,2,0,0,1,-1
1541874450070667,-2,-2,0,-7,0,0,-1,-2
1541874450070667,-2,-2,-2,0,-3,-1,-2,0
1541874450092738,-2,-2,0,6,1,0,1,1
1541874450092738,-1,0,1,-1,-1,-1,1,-2
1541874450106695,-1,0,-1,8,1,-1,-3,0
1541874450106695,-4,-3,-1,-5,-1,1,1,-4
1541874450114715,-6,-6,-3,3,-1,-4,-4,6
1541874450114715,-2,-2,-1,-4,-1,-2,-5,-9
1541874450115716,6,4,2,-3,1,1,7,11
1541874450115716,-3,-3,-7,-8,-6,-4,-7,6
1541874450123722,-2,-2,-3,1,-4,-5,-5,-19
1541874450123722,-4,-4,0,-6,-5,-3,-5,-4
1541874450123722,-4,-2,3,2,4,1,-4,-15
1541874450123722,-8,-4,1,0,-1,-4,-4,-19
1541874450167746,16,13,6,10,2,6,11,6
1541874450167746,-12,-7,-4,-8,-3,-7,-8,-10
1541874450191778,5,-4,-1,1,-3,-3,1,3
1541874450191778,7,9,4,1,6,2,4,-20
1541874450198825,-6,-4,-2,0,0,-2,-5,-5
1541874450198825,14,12,6,3,5,5,15,29
1541874450199807,-12,-7,-2,-1,-3,-3,-5,-16
1541874450199807,4,0,0,2,-2,-4,-5,3
1541874450200789,4,2,0,-1,-1,-1,0,-1
1541874450200789,3,-1,-2,1,-3,-3,-3,-2
1541874450250862,-3,-4,-4,-1,-1,2,0,-2
1541874450250862,11,4,2,1,3,5,12,94
1541874450251824,-5,-1,0,3,-3,1,3,2
1541874450251824,8,4,2,1,2,5,4,-76
1541874450252809,-2,-1,-4,1,0,1,-3,1
1541874450252809,-5,-3,-1,-2,0,1,2,0
1541874450273880,-5,-3,-2,-1,-3,1,-3,-3
1541874450273880,-3,-2,-3,-1,-1,2,-1,20
1541874450274864,-1,2,-2,-3,-2,0,0,-1
1541874450274864,-2,-1,-2,-2,0,-1,0,-24
1541874450275847,-4,-3,-1,1,0,-2,0,1
1541874450275847,-4,-3,-1,0,1,1,1,21
1541874450325922,3,5,4,2,4,4,4,-6
1541874450325922,-2,0,4,0,-1,0,1,-11
1541874450327868,0,-1,0,-2,-3,-1,0,2
1541874450327868,1,0,1,0,-2,-2,-2,2
1541874450328884,0,-1,-1,-2,-5,-5,-4,8
1541874450328884,2,2,6,-1,-5,-4,-4,-15
1541874450349888,4,0,-1,-1,-2,-2,-4,1
1541874450349888,-2,-2,1,-3,-3,-2,-3,9
1541874450350941,1,-1,0,1,-2,0,-1,0
1541874450350941,1,-1,-2,-1,3,2,0,-2
1541874450363951,3,3,4,2,-2,-3,-1,0
1541874450363951,1,-1,-1,-2,-5,-3,-3,-5
1541874450364952,4,0,0,0,-3,-5,-4,-2
1541874450364952,-1,-1,2,1,-3,-1,-3,-2
1541874450365914,4,1,-2,-2,-1,0,-1,0
1541874450365914,-1,0,-2,-4,-1,-1,-2,1
1541874450376927,-1,-1,-3,-4,-1,2,0,0
1541874450376927,-4,-2,-1,2,1,2,1,-1
1541874450401946,-3,-4,-4,0,0,0,1,3
1541874450401946,-9,-3,-5,-6,-1,0,-1,2
1541874450401946,-5,-4,-5,-2,1,2,3,6
1541874450401946,-4,-2,-4,-2,-1,-1,0,0
1541874450406949,5,1,-1,3,-3,0,2,10
1541874450406949,2,-1,0,1,2,1,2,35
1541874450407941,-4,-5,-2,1,1,0,-2,16
1541874450407941,4,1,2,1,-1,1,5,-23
1541874450421962,-19,-5,0,-2,-3,-4,-6,18
1541874450421962,1,7,0,0,2,2,-3,-30
1541874450422963,0,-6,-3,-3,-3,0,-4,-36
1541874450422963,16,2,0,0,-1,-1,6,125
1541874450443979,8,-5,-4,-5,-2,0,-1,41
1541874450443979,-49,-15,-1,-2,-3,-6,-23,-93
1541874450444959,-16,-2,1,1,0,-1,3,-23
1541874450444959,25,5,0,3,1,1,2,7
1541874450466980,11,6,2,-3,-2,0,9,54
1541874450466980,-20,-3,-3,-4,-2,-5,-5,-25
1541874450467994,7,1,-1,-3,-2,-3,3,68
1541874450467994,-36,-3,0,-1,-4,-4,-22,-109
1541874450490051,9,5,1,2,2,-4,2,91
1541874450490051,45,1,-5,-3,0,5,28,85
1541874450491032,-26,-10,-5,-8,-6,-5,-13,-39
1541874450491032,-33,-11,-2,-3,-5,-8,-25,-58
1541874450512068,-14,4,3,-1,2,1,-11,-124
1541874450512068,8,4,2,3,1,-1,1,45
1541874450513030,28,5,-1,0,1,5,15,54
1541874450513030,18,2,-2,-4,0,2,13,107
1541874450528041,-13,-1,0,3,-3,-3,-8,-24
1541874450528041,7,1,0,1,-2,-1,5,-7
1541874450528041,11,3,-1,-4,1,0,0,49
1541874450528041,-6,-1,0,-2,-2,-3,-5,-79
1541874450542091,-8,-1,-2,1,3,0,-2,-60
1541874450542091,28,8,1,1,-1,4,8,65
1541874450543072,-15,-5,-4,-6,-5,-4,-11,-16
1541874450543072,-8,0,4,4,5,0,3,11
1541874450564108,6,-1,-2,-3,-2,-1,6,23
1541874450564108,-7,0,-1,-2,-2,-2,-5,-4
1541874450565055,-4,-2,-1,4,1,-1,-3,-18
1541874450565055,12,2,-2,0,0,-1,5,16
1541874450587091,3,-2,-2,-1,0,2,3,-10
1541874450587091,-8,-5,-3,-3,-2,-4,-10,2
1541874450588073,-1,4,2,0,0,-1,2,-19
1541874450588073,3,2,-1,0,-1,1,5,11
1541874450602102,0,0,0,-3,-3,0,-2,-2
1541874450602102,-10,-5,-3,-1,-1,-1,-3,-32
1541874450603096,10,5,1,0,0,0,-2,0
1541874450603096,-6,-5,-1,0,0,1,0,-10
1541874450624111,0,-1,-3,-3,-4,-2,0,-2
1541874450624111,4,0,-1,-2,-4,-4,-3,0
1541874450625102,-3,-1,-1,2,1,-2,-1,-6
1541874450625102,6,4,3,1,-1,2,4,10
1541874450647139,5,1,2,1,1,1,6,2
1541874450647139,-8,-2,1,1,0,0,-1,-10
1541874450648129,7,6,3,1,1,1,2,-4
1541874450648129,-7,-3,-1,-3,-4,-5,-8,-10
1541874450661140,7,1,1,2,1,2,1,1
1541874450661140,3,2,1,-1,-1,0,2,4
1541874450669139,-11,-7,-3,-3,-5,-5,-11,-32
1541874450669139,-4,-6,-4,-5,-6,-6,-8,4
1541874450692154,0,1,-1,0,-3,0,-1,-15
1541874450692154,2,0,0,0,-3,-3,-3,5
1541874450693154,0,-1,1,-1,-1,-1,1,4
1541874450693154,4,-1,-4,-2,0,-4,0,0
1541874450715176,-2,-3,-3,-1,-1,-2,-3,10
1541874450715176,0,1,1,0,1,0,-1,-16
1541874450716227,-1,-2,-1,-1,0,0,2,3
1541874450716227,-1,-2,1,0,4,3,5,2
1541874450721232,-4,-4,-3,-1,-1,0,-3,6
1541874450721232,-1,0,0,-2,0,-1,1,9
1541874450729220,-1,-2,-2,1,1,1,-1,2
1541874450729220,-2,1,-1,0,-1,-1,-1,-9
1541874450744214,-7,-3,-6,-2,0,-4,-2,-3
1541874450744214,-3,-3,-1,0,0,1,0,-3
1541874450745197,0,1,-3,-3,-1,0,2,9
1541874450745197,2,1,0,-2,0,2,3,18
1541874450767234,-4,-3,-1,-1,2,0,0,-12
1541874450767234,-6,0,-1,15,2,1,-1,-17
1541874450768215,-1,0,-4,-26,-2,1,0,19
1541874450768215,-5,-4,-3,-8,2,-1,-4,-17
1541874450790250,-3,-2,-1,18,2,-1,2,13
1541874450790250,1,-1,0,-7,0,-1,-1,24
1541874450791246,-3,1,1,30,3,0,1,-39
1541874450791246,-1,0,-3,-14,-6,-4,-1,12
1541874450804261,3,-2,2,-27,-4,-1,-2,4
1541874450804261,-5,1,2,1,0,-1,0,-23
1541874450805266,2,-2,-3,-2,-3,-3,-1,10
1541874450805266,3,0,1,10,0,1,1,-3
1541874450827279,-3,-1,-1,2,-1,-1,-4,-10
1541874450827279,4,0,-1,-18,-3,0,1,3
1541874450828262,-1,1,1,2,-2,-2,-1,10
1541874450828262,3,3,3,7,-1,-4,0,-12
1541874450841290,4,4,3,-5,-4,-5,-5,-2
1541874450841290,4,0,-3,-1,-2,-5,-4,-7
1541874450849296,2,3,0,0,-2,-2,-2,-10
1541874450849296,3,1,-1,2,0,-2,-1,-3
1541874450864291,2,-2,-1,-3,1,0,-1,3
1541874450864291,0,-1,-1,4,1,1,1,-2
1541874450865310,-2,-2,-2,1,0,1,1,-8
1541874450865310,-1,-2,-1,-11,-2,0,-1,12
1541874450887358,0,-1,-1,4,-1,1,1,-4
1541874450887358,-4,-3,-3,0,-1,0,-2,-3
1541874450888319,-3,-2,-1,-6,3,1,-1,6
1541874450888319,-4,-5,-4,1,2,1,0,2
1541874450901374,-7,-1,-3,3,1,2,0,-9
1541874450901374,-4,-2,-2,2,0,-1,-1,-1
1541874450909345,0,-4,-1,-1,-1,1,4,9
1541874450909345,5,-2,-1,2,0,1,1,24
1541874450932355,-8,-4,-1,3,2,-2,-5,-38
1541874450932355,-1,1,0,-6,0,0,-1,-1
1541874450933345,-6,-2,0,-2,-1,-3,-5,-8
1541874450933345,-3,-1,0,2,0,-2,-2,-6
1541874450947374,6,0,-3,-4,-6,-3,4,28
1541874450947374,-5,-2,-4,-1,-1,-2,-3,0
1541874450948375,-6,-5,-4,-2,-5,-7,-11,-14
1541874450948375,2,5,2,3,-1,3,1,4
1541874450961419,-5,-1,1,1,2,1,3,1
1541874450961419,10,10,7,5,5,8,13,8
1541874450969392,-6,-2,-2,-3,-1,-3,-3,-10
1541874450969392,3,-1,0,-3,1,2,5,10
1541874450984439,-4,-2,-2,-1,-2,-2,-7,7
1541874450984439,2,-5,-1,0,-1,0,1,-5
1541874450985401,0,1,0,-3,-1,1,-2,-9
1541874450985401,4,2,1,1,1,0,6,15
1541874451007412,0,-1,-1,0,0,-1,-2,3
1541874451007412,-5,-3,-3,-1,-3,-2,-4,9
1541874451008422,4,2,2,2,2,4,9,13
1541874451008422,-8,-4,-3,-1,-4,-1,-4,-13
1541874451030479,3,1,-2,-2,0,-2,-2,5
1541874451030479,-3,-2,-4,-4,-2,-4,-7,-17
1541874451030479,3,1,1,2,0,2,2,3
1541874451030479,-4,-2,-2,-1,-1,-3,-5,-14
1541874451044450,-4,-2,-1,0,1,-1,0,5
1541874451044450,2,3,0,1,2,2,4,-1
1541874451045452,-2,-1,0,-1,-2,0,0,1
1541874451045452,1,-1,-1,-1,-1,-1,0,4
1541874451067469,-1,0,-1,-3,-2,0,-4,-9
1541874451067469,-5,-5,-4,-2,-2,-3,-4,0
1541874451068469,-1,-3,-1,-1,1,0,1,4
1541874451068469,-2,0,-1,1,1,1,0,-6
1541874451090521,-1,-2,-2,0,-3,1,1,-6
1541874451090521,1,0,-1,-1,0,-2,-2,2
1541874451090521,-2,-3,-2,-1,1,0,-1,-4
1541874451090521,-5,-3,-1,-2,0,0,-1,-10
1541874451112498,-2,-2,0,0,0,-1,2,2
1541874451112498,0,-2,-2,-3,-4,-1,-3,0
1541874451113499,2,0,0,-2,-2,1,2,7
1541874451113499,1,1,0,-2,-2,-1,-1,-2
1541874451135503,0,-2,-3,-1,-4,0,1,4
1541874451135503,0,-2,0,-1,-2,-3,-4,-6
1541874451135503,-1,0,0,0,0,-1,-1,0
1541874451135503,-2,-1,-3,-1,-1,0,-3,-5
1541874451157520,2,1,-1,0,-1,-1,2,1
1541874451157520,-1,0,-1,0,-1,0,-1,-2
1541874451158521,0,0,-1,-1,-1,-1,-3,-3
1541874451158521,1,0,1,-2,-2,-2,-1,-2
1541874451164525,1,-2,-1,-1,0,-2,-1,2
1541874451164525,-1,0,3,0,1,0,1,-1
1541874451165527,-2,1,-1,1,-1,0,-3,-7
1541874451165527,-2,0,-1,-1,-2,0,0,-3
1541874451188544,-3,-2,0,-2,-2,-1,-2,-5
1541874451188544,1,-1,0,0,-2,0,1,3
1541874451189545,0,-2,-2,-3,-1,-4,-4,0
1541874451189545,0,-2,-2,0,0,-1,-1,-4
1541874451234596,-1,-1,0,-2,-2,0,1,-1
1541874451234596,-2,-1,-1,0,-1,-2,2,3
1541874451235591,-1,-1,-2,-3,-3,-2,0,0
1541874451235591,-4,-3,-2,-3,-1,0,-2,-3
1541874451236601,0,-2,-1,0,0,-2,1,3
1541874451236601,-5,-5,-3,-2,-2,-2,-4,-2
1541874451249592,-1,-2,-1,-1,-1,0,-2,6
1541874451249592,-2,-3,0,1,0,0,-2,1
1541874451250612,-1,-1,1,0,-1,0,-5,-11
1541874451250612,-1,-1,0,-3,-1,0,-3,3
1541874451270663,-2,0,-2,-1,0,-3,-3,-3
1541874451270663,2,3,1,1,0,-2,-2,0
1541874451271624,-1,-3,-3,-2,-1,-1,-3,1
1541874451271624,1,0,0,1,1,2,2,1
1541874451273632,0,-4,-5,-3,-2,-2,-2,-2
1541874451273632,3,1,1,-1,0,1,2,6
1541874451283634,-2,2,2,2,2,0,-1,-11
1541874451283634,-5,-5,-5,-3,-1,-3,-4,-3
1541874451292626,0,0,0,1,0,1,2,3
1541874451292626,-2,1,-1,-2,0,0,0,-3
1541874451314698,1,1,0,0,0,1,2,5
1541874451314698,1,0,0,0,0,0,0,1
1541874451316645,1,1,0,-1,-1,-2,1,-1
1541874451316645,2,-1,1,-2,-4,-3,-2,-6
1541874451337681,2,-1,1,-2,-3,-4,-4,-2
1541874451337681,4,2,1,0,-2,-2,-1,-4
1541874451339673,3,0,1,0,-1,-1,-2,-5
1541874451339673,-1,-2,-1,-1,0,-1,-3,-4
1541874451376748,2,2,-1,0,-2,0,-1,2
1541874451376748,-2,-1,-1,-1,1,1,1,1
1541874451377705,-3,-2,-2,0,-1,0,-3,-2
1541874451377705,-2,-2,-2,-1,-2,0,0,0
1541874451378709,-1,-1,1,-1,-2,-1,-1,2
1541874451378709,0,0,-1,-1,-3,-1,-2,-1
1541874451392709,0,2,1,-1,-2,-3,-1,0
1541874451392709,0,0,-2,0,-2,-1,0,-2
1541874451392709,1,-1,-2,0,0,1,1,1
1541874451392709,1,-1,0,0,-5,0,-1,-2
1541874451421783,1,0,0,0,-2,-3,-4,2
1541874451421783,2,0,0,1,-1,-3,-2,-4
1541874451422745,-2,-2,-1,-6,-2,-2,-1,-3
1541874451422745,2,1,-1,-2,0,1,0,0
1541874451423745,-1,-2,-1,-3,-1,-1,-2,-2
1541874451423745,-6,-1,-1,1,0,2,1,-9
1541874451442745,-2,0,2,6,3,4,5,3
1541874451442745,-3,-5,-5,-5,-5,-5,-6,4
1541874451443768,-6,-2,-2,-4,0,0,-3,-3
1541874451443768,-23,-14,-10,-5,-5,-10,-17,-27
1541874451465781,17,9,4,4,7,9,16,26
1541874451465781,-9,-5,-3,4,1,1,-2,-12
1541874451467783,-9,-12,-9,-11,-12,-10,-8,-12
1541874451467783,4,5,1,5,4,4,7,13
1541874451467783,-39,-27,-15,-14,-10,-16,-24,69
1541874451467783,30,16,8,5,6,10,30,-6
1541874451489796,-4,-9,-10,-6,-6,-9,-13,80
1541874451489796,-12,-1,3,0,0,4,9,-14
1541874451490818,27,20,8,10,6,5,4,-13
1541874451490818,-13,-4,0,0,1,0,0,3
1541874451500808,-5,-2,-2,-3,-4,-3,-2,-10
1541874451500808,11,18,6,7,5,7,10,-18
1541874451516857,2,-2,-1,-3,0,-3,-8,-8
1541874451516857,-16,-14,-7,-7,-7,-8,-15,1
1541874451525809,5,7,6,5,7,11,14,-45
1541874451525809,2,-2,1,-5,0,-1,-1,25
1541874451526825,-3,5,0,-1,-1,1,1,-39
1541874451526825,3,4,3,2,0,-1,1,15
1541874451532825,2,1,2,3,1,2,7,17
1541874451532825,2,-6,-5,-5,-4,-5,-10,2
1541874451554851,-5,-7,-3,-4,-5,-4,0,7
1541874451554851,-2,-1,-1,0,0,-3,-6,-4
1541874451556852,0,3,0,2,1,1,0,-6
1541874451556852,-1,-1,-1,-3,-2,-1,-2,34
1541874451577905,1,1,1,3,1,-1,-6,-28
1541874451577905,1,-1,0,-2,-1,-1,-4,14
1541874451578882,-2,1,2,1,2,4,3,-26
1541874451578882,7,0,-3,-1,-1,-1,-4,6
1541874451599886,-1,-2,-1,0,0,-1,4,12
1541874451599886,0,0,0,-2,-1,0,-2,0
1541874451601869,0,0,1,-1,-2,-1,0,17
1541874451601869,-2,-5,-3,-2,-3,-4,-7,-14
1541874451638913,4,3,1,1,-1,2,8,7
1541874451638913,0,-3,-2,-2,-2,-1,-5,-12
1541874451640914,-1,-9,-2,-1,-1,-1,-1,-3
1541874451640914,2,9,1,-2,-2,-2,1,2
1541874451640914,-4,-3,-2,-2,0,0,0,-18
1541874451640914,0,2,2,1,0,1,3,12
1541874451690950,1,-2,0,-1,-1,-1,-3,-1
1541874451690950,3,-2,1,-3,-4,-2,0,1
1541874451691940,-4,-4,-5,-3,-3,-1,-4,6
1541874451691940,-2,-2,-1,-1,0,-2,-4,-6
1541874451693951,0,1,-2,-1,1,0,-1,-1
1541874451693951,-1,-3,1,0,0,0,0,-3
1541874451734993,-2,1,0,-2,-1,-2,-1,-8
1541874451734993,-3,-1,-2,-1,-1,0,0,2
1541874451744000,1,-1,1,0,-2,-2,2,1
1541874451744000,-5,-5,-6,-2,0,-2,-3,-5
1541874451745001,-3,-4,-3,-3,-3,-2,-4,-2
1541874451745001,-3,-1,-1,-2,-5,-4,-2,0
1541874451745989,1,3,-1,-1,-2,-4,-2,-4
1541874451745989,-3,-4,-1,-1,1,-1,-1,-2
1541874451751005,-3,-1,-2,0,0,0,0,-3
1541874451751005,4,1,0,-3,0,-2,1,5
1541874451752000,5,12,2,-1,-2,-2,-1,4
1541874451752000,0,43,-1,-3,-2,-2,-3,-3
1541874451752997,-15,15,-5,-4,-3,-2,-1,-4
1541874451752997,5,-11,-7,0,1,0,-2,3
1541874451764051,-9,-79,-5,-2,1,2,4,1
1541874451764051,23,90,8,2,1,-2,-2,-5
1541874451789015,1,-42,-10,-5,-3,2,3,-5
1541874451789015,-16,-10,0,7,2,0,-1,-8
1541874451790036,-12,-36,-5,-9,-3,-6,-6,15
1541874451790036,2,-100,-7,-4,-2,1,5,-17
1541874451811089,27,78,14,-1,2,2,2,3
1541874451811089,23,82,7,13,-5,-5,-5,-5
1541874451812050,-53,-62,-21,-11,-1,1,-2,5
1541874451812050,-7,19,5,2,0,1,0,-3
1541874451813050,-8,-36,-10,-3,-1,0,-6,1
1541874451813050,8,-12,12,2,2,2,3,2
1541874451833069,27,60,12,9,1,1,0,3
1541874451833069,0,-23,-15,-14,-2,1,1,8
1541874451835071,-1,5,8,3,2,-1,1,-2
1541874451835071,-10,17,-3,-6,-2,0,-2,2
1541874451863085,12,9,2,2,-1,0,-2,-9
1541874451863085,-5,-27,-1,0,2,0,1,6
1541874451864084,-3,7,1,5,0,0,-1,-5
1541874451864084,-6,-4,-7,-8,-1,-1,-2,2
1541874451877104,3,7,1,0,-1,2,2,-6
1541874451877104,-7,1,-1,5,1,2,1,4
1541874451879086,-1,0,-2,0,1,3,0,7
1541874451879086,-10,-19,-5,-4,-2,-2,1,1
1541874451884093,0,11,-1,-1,-4,-2,-1,-8
1541874451884093,-1,6,4,2,-3,-4,-1,1
1541874451900105,7,3,1,1,-4,-6,-3,-4
1541874451900105,-2,-23,-4,-8,-4,-3,-2,-3
1541874451915117,5,6,2,1,-2,-4,-5,-10
1541874451915117,3,9,4,3,0,-1,-2,-3
1541874451917131,1,11,1,-3,-2,-2,1,-4
1541874451917131,0,10,-2,-2,-1,-1,0,-6
1541874451969176,4,-2,-1,-2,-1,0,0,-4
1541874451969176,-3,-15,-2,0,-2,-3,-2,9
1541874451970172,-2,-13,0,2,1,1,0,-3
1541874451970172,11,8,7,5,5,5,9,4
1541874451971167,3,20,-3,-2,-4,-7,-8,-6
1541874451971167,-2,-14,-4,-4,-3,-2,0,3
1541874452014207,0,2,0,1,1,-3,-6,1
1541874452014207,0,-2,-2,-2,-1,-1,0,-1
1541874452015194,2,7,2,-1,2,1,2,-2
1541874452015194,-3,-2,0,5,3,5,6,-5
1541874452015194,6,1,0,0,2,1,8,6
1541874452015194,0,-9,-2,-2,-2,-3,-6,-9
1541874452016195,-7,2,0,0,-2,-1,-4,5
1541874452016195,-2,6,2,2,1,1,-3,-16
1541874452067235,-7,-4,-1,1,0,1,-3,-22
1541874452067235,1,-8,-11,-5,2,1,5,2
1541874452068255,4,14,2,1,3,4,4,4
1541874452068255,-3,0,-3,1,-1,-2,-5,-9
1541874452069258,-5,4,-4,-2,-2,-2,-2,-6
1541874452069258,-2,2,-1,-2,0,-1,1,-1
1541874452090254,-4,-5,-1,3,-2,-3,-1,1
1541874452090254,-2,-6,-1,-4,0,-3,-2,10
1541874452090254,4,1,0,0,0,1,0,2
1541874452090254,-4,-4,-1,-2,-3,-3,-1,5
1541874452091254,1,-5,-1,0,1,2,0,1
1541874452091254,-5,12,-2,-3,-2,-2,-2,1
1541874452104263,-3,-5,-3,-4,-2,-2,-2,1
1541874452104263,-2,-2,0,0,-1,-1,-1,-2
1541874452140294,-3,-3,-1,1,-1,-1,0,-2
1541874452140294,3,-3,-1,1,-2,-1,2,8
1541874452149313,0,-1,-1,-1,0,2,1,1
1541874452149313,-5,-1,1,0,-1,-4,-5,-3
1541874452149313,0,3,-1,0,1,1,2,-1
1541874452149313,-1,-2,-1,-3,-2,-3,-3,-1
1541874452151301,0,-4,-2,-3,1,-1,-1,1
1541874452151301,-2,0,-1,7,0,2,-1,1
1541874452171318,-2,3,-4,-20,-5,-3,-4,-5
1541874452171318,-3,-11,-2,-1,0,-1,-1,2
1541874452173321,2,4,-3,-1,-4,-2,0,4
1541874452173321,0,2,2,4,1,1,-1,0
1541874452403554,-3,2,0,-4,-3,-3,-1,-2
1541874452403554,-2,-15,-1,-3,1,1,0,1
1541874452404502,2,1,3,20,1,-1,-1,-3
1541874452404502,1,4,0,-8,-1,-2,-1,0
1541874452406502,-1,-4,0,3,1,-1,0,0
1541874452406502,1,-3,-2,-8,-1,1,-1,0
1541874452427537,0,0,-1,1,1,1,-1,-3
1541874452427537,-4,0,-3,7,-1,-2,-2,-2
1541874452428520,1,2,1,-1,1,-1,0,1
1541874452428520,2,1,0,4,2,1,-1,-2
1541874452441547,6,2,-5,0,2,1,4,15
1541874452441547,-3,13,27,3,1,-1,-1,-2
1541874452443549,4,-9,-13,0,2,1,4,-2
1541874452443549,-6,-3,6,-1,-2,0,-2,-2
1541874452443549,-1,1,1,1,1,2,1,-2
1541874452443549,-5,-3,0,3,0,0,-3,-7
1541874452449536,-4,2,1,-3,-1,-1,0,5
1541874452449536,-2,0,1,0,-1,-2,-1,-4
1541874452449536,3,1,7,1,-1,0,2,5
1541874452449536,-5,-3,-15,-4,-5,-7,-5,-9
1541874452470571,11,5,13,3,1,2,3,1
1541874452470571,7,3,3,0,1,1,3,-2
1541874452471558,0,0,2,-2,-3,-1,-3,-5
1541874452471558,2,-3,2,2,-2,0,1,2
1541874452473568,-2,3,-10,-3,-3,-3,-4,-14
1541874452473568,1,0,5,-1,-2,-3,-2,-1
1541874452492606,2,-1,-5,-1,-1,2,0,0
1541874452492606,-3,-3,0,0,-1,-2,-3,-6
1541874452494578,1,1,0,-2,-1,-2,-3,-2
1541874452494578,0,-2,8,1,-2,1,0,-7
1541874452515598,5,2,-11,-2,1,0,0,-2
1541874452515598,-1,-3,-7,0,0,-1,1,-2
1541874452516597,-1,-2,-4,-1,0,1,1,3
1541874452516597,-2,1,8,1,-1,-2,-1,0
1541874452545630,-3,-2,1,0,0,1,1,1
1541874452545630,-1,-2,-5,-1,-1,0,0,-1
1541874452547631,-1,-1,-2,-1,0,1,1,3
1541874452547631,-2,-1,-4,-1,-2,0,0,5
1541874452598672,-2,-3,3,-2,-2,-1,0,-2
1541874452598672,0,-2,-5,-1,1,0,-1,4
1541874452600663,-1,0,-2,-1,-2,-2,0,1
1541874452600663,-3,-4,-4,-1,0,-1,-1,-3
1541874452601670,-3,-1,1,-4,-2,-2,-2,0
1541874452601670,4,4,3,0,-1,0,1,3
1541874452651748,-4,-4,-6,-3,-1,1,-3,1
1541874452651748,-1,-1,-1,0,-1,-1,-1,-1
1541874452652718,-1,-2,1,0,-2,-1,-1,1
1541874452652718,-1,-2,-6,1,-1,-1,0,-2
1541874452652718,-1,1,10,0,0,0,1,-2
1541874452652718,1,-1,-7,1,1,0,1,-1
1541874452673730,1,1,3,-3,-2,-1,1,0
1541874452673730,-1,-1,0,0,-1,-1,1,-1
1541874452674719,-1,-5,-4,-2,-2,-2,-1,0
1541874452674719,-1,0,2,-2,-1,0,-2,-2
1541874452676734,-1,-2,-3,0,-1,-1,-2,1
1541874452676734,0,0,1,-2,0,0,-1,-1
1541874452697733,-1,1,1,8,-1,-1,-1,0
1541874452697733,-1,-2,0,2,0,-1,-2,-2
1541874452697733,-1,-1,-1,-3,1,-1,-1,-2
1541874452697733,-2,-1,-1,-4,-1,-1,-2,-1
1541874452748790,2,-1,2,6,-1,-2,-1,2
1541874452748790,-2,0,-1,-4,0,-1,-1,0
1541874452749784,-2,1,-2,1,-3,-1,-2,-1
1541874452749784,-1,-1,-1,-4,-1,-2,1,-2
1541874452751792,-3,-3,-5,-1,-3,-4,-3,0
1541874452751792,3,0,0,1,2,2,0,1
1541874452771842,-2,0,-3,-1,0,-1,-2,1
1541874452771842,-1,-1,-1,-4,-1,-2,-1,-2
1541874452772805,0,2,-1,0,-1,-1,-1,-1
1541874452772805,-2,-2,-3,1,-2,0,0,-1
1541874452821842,1,0,1,1,-1,-1,-1,-1
1541874452821842,-2,0,0,-1,0,-2,-3,-2
1541874452845901,2,1,-1,-1,0,-1,-2,-3
1541874452845901,0,-1,-1,-2,-3,-3,1,4
1541874452861913,-1,-2,0,1,0,0,0,-1
1541874452861913,2,1,1,-3,-3,-1,2,-1
1541874452861913,-3,-3,0,-1,-1,1,-2,-5
1541874452861913,-3,-1,-3,-3,-3,-2,-3,1
1541874452863870,1,2,1,1,1,1,-1,-12
1541874452863870,0,-2,-2,-5,-4,-4,-1,7
1541874452883895,-2,-3,-2,-3,-2,-3,-2,-4
1541874452883895,-1,1,0,0,0,1,0,-4
1541874452884892,-1,0,-2,0,-1,-1,-2,-5
1541874452884892,2,1,0,-1,0,-1,1,2
1541874452886891,2,3,1,-1,-1,1,1,0
1541874452886891,-1,0,-1,0,-1,0,0,-4
1541874452959952,1,2,-1,1,1,1,-1,0
1541874452959952,1,3,1,1,1,1,3,1
1541874452960974,1,1,-1,-1,-1,1,1,5
1541874452960974,-1,-2,-2,-1,-2,-2,-3,-1
1541874452981963,-1,1,1,3,0,0,0,-1
1541874452981963,-1,0,-1,-1,2,0,1,-1
1541874452981963,2,0,0,0,1,1,0,2
1541874452981963,0,0,1,-1,-2,0,-1,-3
1541874452983956,4,0,-1,-2,-1,0,-1,2
1541874452983956,1,1,-1,0,2,1,2,-1
1541874452987977,1,1,-1,0,2,0,1,-4
1541874452987977,-2,0,0,0,-1,1,-1,-2
1541874452994966,-2,-3,-4,1,1,1,3,1
1541874452994966,-3,-2,4,0,-1,-2,0,1
1541874453010976,-1,-1,-1,1,-2,1,-1,-1
1541874453010976,1,-1,0,0,-2,-2,-2,0
1541874453012013,-2,-1,0,-2,-1,-2,-2,-2
1541874453012013,3,-2,0,-1,-1,1,-1,1
1541874453018000,-1,-1,2,0,0,-1,-2,1
1541874453018000,-2,1,1,1,-1,-1,-1,-1
1541874453033011,-5,-2,0,-1,-2,-2,-2,-2
1541874453033011,0,-1,0,1,0,0,-1,-1
1541874453033994,-2,0,0,-1,1,1,1,0
1541874453033994,1,-1,-3,-1,0,0,0,0
1541874453055065,-2,-1,-1,-2,-3,-2,1,-3
1541874453055065,-3,-3,-7,-2,-2,-1,-2,-2
1541874453063028,-2,0,-3,-3,-7,-2,-1,2
1541874453063028,1,-4,-4,-3,-2,-4,-3,-1
1541874453069041,0,2,2,5,9,4,0,0
1541874453069041,-3,-1,-1,2,3,2,0,-3
1541874453078038,1,0,-2,0,-1,2,1,0
1541874453078038,-3,-2,0,-2,-3,-1,-2,0
1541874453093096,-1,-3,-1,-3,-5,-4,-1,-2
1541874453093096,-2,-2,-2,-3,-2,-4,0,0
1541874453094044,-1,-1,-1,-1,-1,-2,0,-1
1541874453094044,0,-1,-1,-1,-1,0,-2,-3
1541874453115062,-1,-1,-2,-2,-1,-2,-3,-1
1541874453115062,1,0,-2,-1,0,0,1,1
1541874453117059,-1,-3,-1,-3,-2,-1,-3,-1
1541874453117059,0,-2,1,1,0,0,1,-1
1541874453138130,-2,-1,-3,-3,-2,-1,-2,-1
1541874453138130,-1,0,2,-1,-1,0,-1,1
1541874453144136,0,0,-1,1,0,-2,-1,1
1541874453144136,-1,0,-2,-1,-1,2,0,-1
1541874453160148,1,-2,-2,-2,-3,-1,1,1
1541874453160148,-2,0,-2,-3,-6,-3,-2,0
1541874453162131,0,-1,-1,0,0,-1,-1,0
1541874453162131,0,0,-1,2,2,0,1,1
1541874453183132,-2,-1,2,-1,3,3,1,0
1541874453183132,1,0,-1,2,3,1,0,1
1541874453184112,-1,-3,-1,-1,-3,-1,-2,0
1541874453184112,-2,-1,-1,-1,-3,-4,-2,-1
1541874453189134,1,-3,-1,0,-6,-4,1,-3
1541874453189134,0,-1,-2,-4,-3,0,0,-1
1541874453215156,1,0,1,0,6,1,1,-1
1541874453215156,-1,0,2,4,10,3,1,1
1541874453216150,-2,-1,0,0,-4,-3,-1,0
1541874453216150,-3,-2,-3,-4,-8,-3,-3,0
1541874453219155,0,1,0,2,2,-1,1,1
1541874453219155,-2,1,1,-2,0,0,-1,-1
1541874453236168,0,-1,-1,3,7,5,1,-1
1541874453236168,0,0,0,1,-2,-3,-1,0
1541874453237155,-1,-1,-2,-5,-6,-4,-1,0
1541874453237155,-2,-2,-2,-3,-4,-1,-1,-1
1541874453265231,-1,0,-1,-1,-1,0,-2,0
1541874453265231,-1,-1,-1,-2,-2,-2,-3,-2
1541874453267233,0,-1,1,-1,1,0,-1,-1
1541874453267233,0,0,-1,0,-1,-1,1,-2
1541874453273182,-2,-2,-3,-2,-3,-1,-1,1
1541874453273182,0,-3,0,1,3,-1,-1,-1
1541874453274182,0,0,-1,-1,1,-1,-1,-1
1541874453274182,0,-1,0,0,-3,0,-3,0
1541874453295219,-2,1,2,-2,-1,-2,-1,-2
1541874453295219,1,-2,0,1,4,-1,-1,-1
1541874453297220,0,-2,0,0,-1,-1,-2,-1
1541874453297220,-1,0,0,-2,-5,0,-1,1
1541874453309213,-2,-1,-1,-1,-1,0,-2,-1
1541874453309213,-1,-1,0,2,-2,-2,0,-1
1541874453318277,-3,-2,-2,-2,4,0,1,0
1541874453318277,0,-1,-1,-3,-4,0,0,-1
1541874453340289,1,0,-1,0,5,2,-1,-2
1541874453340289,-1,0,0,-2,2,2,0,-1
1541874453342255,-2,-3,-1,-2,-6,-8,-3,-3
1541874453342255,0,0,-1,2,-7,-6,-2,-2
1541874453362271,0,-2,-1,-5,0,-1,-1,0
1541874453362271,-2,0,1,0,-3,-1,1,0
1541874453364254,0,-1,0,1,-2,7,0,-2
1541874453364254,0,-2,-1,1,5,1,1,-1
1541874453369271,-1,0,-1,-1,-1,-5,-1,-1
1541874453369271,-1,-1,-3,-4,-5,-1,-4,-2
1541874453385269,-1,-2,-2,-7,-8,-4,-1,1
1541874453385269,-1,-1,-1,-4,-4,1,-2,-2
1541874453392294,-1,-1,-1,-2,-9,-12,-2,1
1541874453392294,0,0,1,3,7,2,2,0
1541874453394286,0,1,2,1,1,-3,0,0
1541874453394286,1,2,2,3,4,3,2,1
1541874453421317,-2,0,1,1,11,10,0,-2
1541874453421317,-1,-1,-2,-2,-5,4,0,0
1541874453440323,-3,-1,-2,-3,-8,-8,-2,-1
1541874453440323,-3,-3,-1,-2,-2,-1,-1,-3
1541874453440323,-2,-1,0,-1,-2,-3,-2,-1
1541874453440323,-1,-2,-1,-2,-1,-3,-2,0
1541874453444333,0,0,0,5,4,5,1,0
1541874453444333,1,-1,-2,-2,0,-3,-1,0
1541874453460345,-1,-1,-1,-3,-4,4,1,0
1541874453460345,-1,0,-2,-3,4,3,-2,-3
1541874453461330,0,1,-1,0,-5,-21,-2,0
1541874453461330,-2,0,0,2,-1,7,2,0
1541874453475395,0,2,0,3,12,1,-1,1
1541874453475395,-1,0,1,1,-2,9,2,1
1541874453476356,0,-1,-1,-4,3,2,-2,-1
1541874453476356,-1,-2,0,0,-9,-7,-2,-1
1541874453489406,0,-1,-1,0,-1,4,0,-1
1541874453489406,-2,-1,-1,2,0,-6,-2,-1
1541874453497376,-2,-1,-1,0,-2,3,-1,0
1541874453497376,0,-1,-4,-9,-9,-8,-2,-2
1541874453511369,0,-3,-2,-3,-6,-4,-3,-4
1541874453511369,1,-1,0,-1,-3,-5,-2,0
1541874453520377,0,-1,0,5,8,5,-1,-1
1541874453520377,-2,-1,0,-5,-2,11,1,0
1541874453543413,1,1,0,0,-1,-9,-1,1
1541874453543413,0,0,1,6,9,14,3,-1
1541874453544412,0,-1,-1,-3,-6,-12,-2,-1
1541874453544412,-1,-1,-1,-6,-9,-12,-4,-1
1541874453548417,-1,0,1,1,-3,0,-2,-2
1541874453548417,-1,0,1,1,5,-1,0,0
1541874453565421,0,-1,-2,0,8,16,2,1
1541874453565421,0,0,-2,3,10,1,-1,-1
1541874453572436,-1,-3,-2,-5,-7,-7,-2,1
1541874453572436,-1,-1,-1,4,-9,-5,-2,0
1541874453574421,-1,0,-1,-14,-12,0,-1,-2
1541874453574421,0,-1,0,1,1,-7,0,-2
1541874453595461,-1,0,-2,-1,0,3,4,0
1541874453595461,-2,-1,-4,-7,-3,-4,0,0
1541874453597437,-2,-2,-1,5,-2,-3,-1,0
1541874453597437,0,0,2,6,2,0,-1,-1
1541874453617452,-1,-1,-1,-10,-5,1,-2,-1
1541874453617452,-1,-1,-3,-10,-6,-7,-1,0
1541874453619454,-2,-1,-1,11,8,2,0,-1
1541874453619454,0,0,5,16,10,5,1,-2
1541874453640470,-1,1,-1,5,-2,-1,0,-2
1541874453640470,1,-2,-3,-8,-5,-4,-2,0
1541874453641471,0,0,-2,-9,-2,1,-2,0
1541874453641471,-1,-3,-6,-4,-1,0,-3,-1
1541874453655484,-1,-1,0,3,0,-3,-1,-2
1541874453655484,-1,0,3,3,-3,-3,0,0
1541874453656484,-1,0,-3,-3,0,3,0,-2
1541874453656484,0,1,4,6,-1,-1,-2,0
1541874453668509,0,0,0,3,2,1,-1,0
1541874453668509,-1,0,0,3,2,-2,0,-1
1541874453694532,-2,0,2,-2,1,2,0,0
1541874453694532,-3,-2,-3,-12,-3,-2,0,0
1541874453695525,-1,-2,-3,-5,-3,-3,-2,-1
1541874453695525,-2,-1,-4,-3,1,0,-2,-2
1541874453698535,-1,-1,-1,-4,1,0,0,-1
1541874453698535,-2,-2,0,12,0,-3,-2,-2
1541874453715529,-1,-2,-2,-11,6,-1,-1,-1
1541874453715529,-1,-2,-1,14,6,1,-1,0
1541874453716530,0,2,1,-3,0,1,0,-2
1541874453716530,0,0,-1,-3,5,-1,0,0
1541874453728594,0,-3,-2,-1,-6,4,1,-2
1541874453728594,-2,-1,1,2,-4,-11,-2,-3
1541874453737557,-2,-5,-4,-10,-14,-5,-5,-2
1541874453737557,0,0,0,0,-5,1,0,0
1541874453751576,-1,1,3,9,5,3,3,0
1541874453751576,-2,-1,1,-4,5,8,-1,-1
1541874453758583,2,-2,-2,-7,3,-1,0,2
1541874453758583,-3,-4,-2,-11,-7,4,-2,-2
1541874453775596,1,2,-2,-7,-10,-16,-3,0
1541874453775596,1,2,-1,-3,0,2,-1,-2
1541874453776578,-2,-4,5,5,-5,-8,0,0
1541874453776578,-1,-1,-3,-9,1,7,1,0
1541874453797613,-1,0,-2,-6,-15,1,-2,-1
1541874453797613,-3,-3,-3,1,0,-1,-4,-3
1541874453799614,1,3,2,25,35,1,-3,-1
1541874453799614,0,2,1,14,4,0,1,0
1541874453811625,-1,-3,0,2,0,3,2,1
1541874453811625,0,-2,-2,-6,1,-7,-3,1
1541874453818629,-3,-4,-4,-5,-5,3,0,-4
1541874453818629,-1,-1,-1,20,6,-13,-2,0
1541874453835642,-1,2,-2,-15,11,1,-1,-2
1541874453835642,2,5,2,-3,-4,0,3,2
1541874453836634,-2,-2,-1,2,6,3,0,-3
1541874453836634,0,6,-2,1,1,14,-1,0
1541874453857661,-2,1,0,1,-14,-24,-3,-2
1541874453857661,-3,-16,-3,9,11,-7,-4,-1
1541874453859661,-3,-11,-2,-19,-26,12,0,-2
1541874453859661,0,-2,-1,-4,-2,-6,0,-1
1541874453871671,3,3,3,2,10,10,1,2
1541874453871671,2,4,0,-30,-1,4,5,3
1541874453878678,-1,1,1,3,-9,-10,-2,0
1541874453878678,-3,6,-4,-18,-10,-4,-3,-3
1541874453895670,-1,3,-5,-3,-4,3,-3,-2
1541874453895670,-2,-1,1,-7,-3,-6,0,-1
1541874453896672,-3,-8,-1,22,15,-10,-2,-2
1541874453896672,-2,-5,3,-1,-13,13,-2,-1
1541874453917688,0,-1,0,12,-16,-20,-1,1
1541874453917688,3,13,5,8,13,25,7,2
1541874453919690,-1,7,-3,-23,-20,-16,2,1
1541874453919690,0,-10,-4,4,33,15,0,-1
1541874453931756,-3,-9,-1,5,-3,5,-4,-1
1541874453931756,-4,-10,-4,3,-25,-22,-6,-3
1541874453938762,0,4,-3,-15,-20,-8,-1,1
1541874453938762,0,4,8,7,1,11,-1,0
1541874453955738,-2,-2,-2,-10,-8,-6,5,1
1541874453955738,1,3,4,19,31,11,4,2
1541874453956720,0,9,-3,1,1,11,1,0
1541874453956720,-1,2,-5,1,-2,-7,-3,-1
1541874453977789,-2,-6,-1,-27,4,-1,1,-1
1541874453977789,-1,-8,-6,1,-9,-1,-3,-2
1541874453979755,0,-2,1,-4,13,0,-1,-1
1541874453979755,0,-2,1,4,-3,-5,0,0
1541874453991765,-1,-1,0,8,2,6,-2,0
1541874453991765,1,12,0,6,-15,-10,-2,0
1541874454000753,0,3,-5,-9,-2,-7,-4,-1
1541874454000753,-2,-8,-5,-10,-16,-9,1,-2
1541874454014764,-1,4,1,0,7,12,0,-3
1541874454014764,-1,-12,2,11,23,10,-1,-2
1541874454016766,-1,6,1,-1,-6,-6,0,-1
1541874454016766,1,0,-1,-16,-18,-5,0,0
1541874454037782,-1,-3,-6,-7,-7,-6,-2,-1
1541874454037782,-4,-4,-2,-2,-19,-3,-4,-3
1541874454039784,1,-1,4,18,5,3,1,1
1541874454039784,0,0,3,11,25,1,1,0
1541874454051793,-1,-2,4,6,-6,11,1,-1
1541874454051793,2,6,-2,-12,1,-7,0,0
1541874454060800,-1,0,-2,1,-9,0,-3,-2
1541874454060800,0,-4,-7,-13,-22,-14,-3,1
1541874454082872,0,2,3,8,18,10,2,0
1541874454082872,0,2,0,-6,6,-4,-2,1
1541874454084861,0,-5,-2,-5,-5,5,3,1
1541874454084861,0,3,-3,-3,-18,-7,-2,-3
1541874454097849,-4,0,5,17,9,8,1,-1
1541874454097849,0,4,-6,-24,-35,-23,-2,-1
1541874454099836,0,-1,1,-21,43,26,5,2
1541874454099836,0,2,3,-8,-1,-7,-1,0
1541874454111888,-2,-9,-5,13,-8,-11,-6,-2
1541874454111888,-2,-5,-2,-10,-14,-11,-7,-5
1541874454120867,0,-11,7,49,-8,-9,-1,0
1541874454120867,9,17,-5,-8,37,23,10,5
1541874454134859,-11,21,-7,-39,-20,-3,-2,-4
1541874454134859,-8,-51,-10,-13,0,8,3,6
1541874454136860,-4,-17,-8,-46,-32,-8,-10,-17
1541874454136860,-8,-16,0,37,10,-26,-9,-8
1541874454157931,11,12,-2,-7,6,12,7,6
1541874454157931,3,34,5,9,-2,3,-2,1
1541874454159903,-1,-10,-7,11,-6,5,2,8
1541874454159903,1,-1,6,-4,-24,-8,-3,0
1541874454171904,-5,-1,-16,-10,-3,-4,-4,-13
1541874454171904,-3,-2,2,34,12,10,4,-1
1541874454180895,0,9,-2,6,25,3,-4,0
1541874454180895,0,8,21,-3,3,3,1,-1
1541874454194926,-3,-17,8,-3,-7,-10,-7,0
1541874454194926,6,0,-13,3,-5,-2,2,4
1541874454196917,-4,-1,-9,-9,-6,-5,-6,-5
1541874454196917,-2,0,-20,-23,16,7,6,1
1541874454217942,3,-6,8,27,3,-1,2,2
1541874454217942,1,2,18,-11,-9,-4,-3,-5
1541874454218944,2,14,7,5,-1,-1,1,3
1541874454218944,-2,-4,-3,2,-14,-2,-2,2
1541874454231955,1,-9,0,1,8,1,0,1
1541874454231955,-2,4,0,-4,19,2,0,-2
1541874454239960,-2,0,-2,7,-6,0,0,-2
1541874454239960,-3,-2,-4,-3,-9,0,-1,0
1541874454255955,-1,-2,-4,9,16,2,-1,-1
1541874454255955,0,3,-1,-10,2,-1,-1,-2
1541874454256970,-1,0,0,3,-8,2,2,1
1541874454256970,0,1,15,5,-5,-1,1,0
1541874454276972,-1,2,13,0,-3,-3,-2,-1
1541874454276972,-2,0,-4,3,-14,1,-3,-1
1541874454277971,0,-1,-3,-11,10,5,2,0
1541874454277971,-4,-7,-12,1,-6,-7,-6,-5
1541874454300008,-1,3,6,-3,-2,-1,3,2
1541874454300008,-1,-1,5,-4,7,2,2,-1
1541874454300999,1,4,15,2,-6,-4,0,-1
1541874454300999,-3,-4,-1,9,2,-1,-3,-1
1541874454330014,2,-2,-4,-2,-3,1,1,1
1541874454330014,-1,1,0,2,14,4,0,-2
1541874454331013,-1,3,24,7,-3,-2,-2,0
1541874454331013,-4,-12,-74,-27,-5,-3,-3,0
1541874454337020,-1,-1,2,2,2,-2,-2,-2
1541874454337020,-2,2,-1,6,1,4,1,-2
1541874454345058,-1,-1,-11,-4,-3,-4,-2,1
1541874454345058,0,3,20,2,7,0,-1,0
1541874454360065,1,0,-8,2,-9,-3,-3,1
1541874454360065,-3,-3,11,-9,0,-3,-2,-1
1541874454360065,0,-2,-14,13,12,4,1,-2
1541874454360065,-1,1,14,-15,-7,-2,-1,0
1541874454375083,0,2,-5,6,-5,-5,-1,1
1541874454375083,-1,-3,0,0,-2,-2,-1,-1
1541874454375083,-2,-1,-8,-1,-9,-4,-1,-2
1541874454375083,0,3,22,3,4,7,3,0
1541874454397084,1,2,2,12,13,3,0,0
1541874454397084,0,1,15,-4,-6,0,0,0
1541874454398066,-2,-2,-51,0,0,-3,0,0
1541874454398066,-1,-5,-12,-1,-9,-9,-5,-3
1541874454419101,0,0,17,-16,-13,-2,-1,0
1541874454419101,-1,1,5,17,3,0,0,-1
1541874454420083,1,0,12,-11,2,1,0,0
1541874454420083,1,3,9,4,5,1,2,-1
1541874454434109,-1,-4,-27,-11,1,-2,-1,-2
1541874454434109,-2,-7,-18,-4,-9,-2,-1,-2
1541874454435094,0,1,12,3,1,-3,-2,-1
1541874454435094,1,2,9,4,5,2,-1,1
1541874454457167,-4,-3,-18,3,1,2,1,-2
1541874454457167,1,2,2,2,-3,0,0,1
1541874454458149,0,-2,-1,-8,-6,-2,-1,-1
1541874454458149,-2,-4,8,6,1,-1,-1,-1
1541874454479130,0,-2,-15,-10,0,-4,-2,-1
1541874454479130,-3,-5,-26,-2,-4,-4,-4,-1
1541874454480146,0,2,10,-2,-2,-1,1,-1
1541874454480146,-1,-2,1,-19,-6,-2,-3,1
1541874454494161,1,0,15,4,13,7,3,-1
1541874454494161,-3,3,4,5,-5,0,-2,-1
1541874454495143,-2,-8,-11,0,10,0,-1,-2
1541874454495143,2,2,14,9,-7,1,2,0
1541874454517159,-1,-1,-2,7,-7,-5,-2,-1
1541874454517159,-1,-2,-17,-14,5,0,-3,0
1541874454518163,-2,2,14,-1,-6,0,-1,-1
1541874454518163,0,1,12,4,6,3,2,-1
1541874454539231,0,1,18,1,3,-1,-3,0
1541874454539231,-1,-1,-15,8,-6,-3,0,-2
1541874454540194,0,-1,15,1,-1,-1,-1,-1
1541874454540194,-2,8,-7,-15,-6,-4,-3,-3
1541874454554188,0,3,22,14,6,4,0,-1
1541874454554188,2,-3,-10,-6,2,2,2,0
1541874454555188,-1,10,16,2,0,-1,0,0
1541874454555188,-3,-5,2,7,-3,-2,0,0
1541874454577220,-1,4,-8,-3,-8,-7,-3,-1
1541874454577220,-3,-13,-14,-10,3,2,2,-1
1541874454578213,0,1,-15,-7,0,-1,-2,-1
1541874454578213,3,1,-10,24,11,3,1,-1
1541874454600239,-6,-10,-22,-14,-8,-2,1,0
1541874454600239,-2,4,48,28,-1,-3,-3,-1
1541874454601230,-4,-18,-39,-33,-11,-3,-2,-3
1541874454601230,-3,-6,-1,4,0,-8,-5,-1
1541874454615291,0,2,13,0,18,9,2,-1
1541874454615291,2,8,-21,-19,-12,-2,-1,-1
1541874454616297,-3,-8,9,8,2,1,1,-1
1541874454616297,1,9,18,1,4,0,-1,0
1541874454637273,0,-4,-13,3,-1,2,0,1
1541874454637273,-2,-5,3,-3,5,-1,-2,0
1541874454638256,0,11,2,-5,-3,1,0,-1
1541874454638256,-2,-10,-7,3,1,0,-1,-1
1541874454660271,2,12,35,9,-7,-7,-2,0
1541874454660271,0,-8,-15,1,3,1,0,0
1541874454661272,0,5,7,-9,-1,2,0,0
1541874454661272,-1,2,34,-1,0,3,1,0
1541874454674337,-4,-21,-70,-22,-9,-5,-3,-3
1541874454674337,-1,7,27,7,-3,-3,1,-2
1541874454675298,2,-7,24,10,3,0,0,1
1541874454675298,4,-7,12,-2,-2,0,1,2
1541874454697300,-4,9,-3,-4,-3,-2,-2,-1
1541874454697300,-3,-24,5,9,-3,-2,-1,-3
1541874454698301,2,9,32,7,-1,-1,-2,-2
1541874454698301,-1,-1,-34,-9,-1,2,2,0
1541874454720373,0,-5,3,7,-3,-2,-1,-2
1541874454720373,0,2,-2,-19,-6,-1,-1,-1
1541874454721355,1,10,-1,5,3,-1,-2,-1
1541874454721355,-2,-1,-13,-8,-2,-2,-1,-2
1541874454734384,1,-1,3,1,-3,0,-2,0
1541874454734384,2,15,11,9,1,0,0,0
1541874454735330,0,-9,-40,6,5,-2,0,-1
1541874454735330,-2,0,-2,-15,-2,3,-1,-4
1541874454757351,3,-1,13,2,2,-1,-2,-2
1541874454757351,-1,19,47,-1,-2,0,0,-1
1541874454758349,-3,-9,-13,2,-3,-3,-1,-1
1541874454758349,-1,4,-4,3,-4,-5,-3,1
1541874454780380,-1,-19,44,9,7,5,4,3
1541874454780380,1,-5,-79,-17,-4,1,0,0
1541874454781421,-7,-5,-29,-5,-4,-3,-3,-3
1541874454781421,-31,-9,14,17,-3,-1,-1,-15
1541874454794379,60,-22,-19,-29,-13,-7,-5,26
1541874454794379,-3,40,48,6,6,1,1,-20
1541874454795377,2,0,-2,1,-3,-3,-1,0
1541874454795377,-8,-6,-21,-3,1,2,0,0
1541874454817414,-5,15,-1,8,3,0,0,-8
1541874454817414,1,-15,0,-5,0,-1,-2,4
1541874454818396,-2,2,-8,-1,-1,1,-1,2
1541874454818396,10,4,5,1,0,-1,0,-2
1541874454840432,-18,4,-4,-2,-2,-2,-1,-5
1541874454840432,3,-7,-20,-2,-1,-2,-1,4
1541874454841433,-7,2,18,3,-1,1,1,-4
1541874454841433,5,5,-30,-7,-1,-2,-2,4
1541874454854479,-6,17,8,2,0,-1,1,-4
1541874454854479,-6,-4,2,5,0,-1,-1,2
1541874454855440,6,4,-34,-2,-2,-1,-1,-2
1541874454855440,1,-25,0,1,0,-1,-2,-1
1541874454884467,-11,-1,-17,-19,-5,-1,0,-4
1541874454884467,1,-2,-17,-4,2,0,0,1
1541874454892473,0,2,44,6,4,4,1,2
1541874454892473,2,17,5,-2,-2,-2,-2,0
1541874454907484,-13,-7,2,8,5,2,-3,0
1541874454907484,5,23,5,-1,-1,0,1,-5
1541874454908466,0,-5,45,6,0,0,1,-2
1541874454908466,1,9,-11,-10,-7,-5,-3,0
1541874454914490,-1,6,-4,-2,-4,-4,2,-2
1541874454914490,-3,-13,4,0,1,-1,-1,2
1541874454915490,-2,-3,-7,7,7,5,2,0
1541874454915490,6,7,-4,0,3,2,-1,-1
1541874454945514,-24,18,45,17,4,2,0,-1
1541874454945514,50,-13,-6,-23,-11,-8,-4,-1
1541874454946515,-9,14,10,-4,-4,-3,-2,-4
1541874454946515,8,-6,4,-2,1,1,0,5
1541874454960527,5,0,-2,-1,0,-1,1,0
1541874454960527,-14,-20,15,17,1,0,-2,0
1541874454961527,-12,-5,11,7,1,0,1,-2
1541874454961527,13,-14,-34,-23,-7,-2,-1,2
1541874454974538,-27,-15,-19,6,2,1,-1,-6
1541874454974538,-7,13,0,1,-1,0,2,-3
1541874454975539,6,-3,-18,-9,-1,-1,-2,0
1541874454975539,-14,25,17,12,-1,-1,-1,-5
1541874454997597,9,-12,-4,18,3,1,-1,-1
1541874454997597,-13,-14,-33,-14,0,-2,-2,1
1541874454997597,1,13,30,15,-2,-1,0,-1
1541874454997597,-1,-17,-1,-12,-2,-2,0,0
1541874455020574,4,-11,-2,-5,-1,-2,-1,-1
1541874455020574,-3,4,-8,3,2,3,-2,0
1541874455021566,4,-18,-13,-6,-3,-3,-2,1
1541874455021566,-2,-3,5,1,1,1,0,-1
1541874455034585,5,3,-38,-8,-3,-3,-3,-3
1541874455034585,-13,-4,5,1,0,-1,-1,-1
1541874455035585,1,-3,-25,-10,-3,-1,-1,-1
1541874455035585,-2,0,17,9,0,-1,0,-1
1541874455057583,1,11,15,3,0,0,0,-1
1541874455057583,-1,-5,-12,-4,-2,-1,-1,2
1541874455058584,1,1,-12,-6,-2,-3,-1,-1
1541874455058584,1,6,0,2,1,-1,0,-1
1541874455080601,1,-6,8,-2,-3,-1,-4,-2
1541874455080601,-2,-2,18,3,0,0,0,-1
1541874455081602,2,0,-30,-4,-1,0,-1,0
1541874455081602,-6,-7,-19,-1,-3,0,-1,-1
1541874455102634,1,-1,-7,-8,-3,-1,-2,-1
1541874455102634,-2,3,19,3,0,0,0,-1
1541874455103656,-1,-3,-7,-1,-1,-2,-1,0
1541874455103656,2,8,4,5,2,2,1,2
1541874455116650,1,4,7,-7,-3,-1,-1,-2
1541874455116650,-2,-6,-6,-3,1,-1,-1,-2
1541874455117641,2,4,3,2,1,0,-1,0
1541874455117641,-1,-5,-26,0,1,-1,-1,-1
1541874455139667,2,6,16,-2,0,-2,1,-1
1541874455139667,-5,-4,-6,12,0,-1,0,0
1541874455140654,-1,-3,10,-15,-4,-1,0,-1
1541874455140654,0,4,16,7,-2,-1,-1,-1
1541874455154679,-3,-10,-43,-31,-8,-2,-3,-2
1541874455154679,0,1,-2,-4,-1,-1,-2,0
1541874455155681,-1,-3,2,6,3,0,1,1
1541874455155681,-1,-1,15,13,1,-1,1,1
1541874455176698,2,0,17,12,2,-2,0,0
1541874455176698,-1,2,-15,-4,-1,0,0,1
1541874455177688,-2,-1,6,-6,-3,-4,-2,0
1541874455177688,0,1,12,16,7,5,0,0
1541874455207721,0,-3,-34,-16,-4,-2,0,1
1541874455207721,-1,5,26,-14,-6,-3,-3,0
1541874455208721,-3,-6,-36,-5,-3,-2,0,1
1541874455208721,-2,-5,7,-6,-5,-4,-1,0
1541874455214706,1,3,-6,11,8,4,0,-1
1541874455214706,-1,0,12,7,3,0,-1,-2
1541874455215708,3,9,15,10,0,0,0,1
1541874455215708,-5,-30,-27,-18,-10,-7,-3,-4
1541874455236779,0,10,9,-8,-8,-5,-3,0
1541874455236779,-1,-2,-25,-12,-4,-2,-1,0
1541874455237727,-1,1,19,29,8,2,1,0
1541874455237727,-1,2,-8,-21,3,4,1,-2
1541874455260762,0,-2,16,3,2,3,1,0
1541874455260762,-1,-2,0,11,-10,-3,-2,-1
1541874455260762,1,0,2,6,1,2,-2,0
1541874455260762,-1,1,-26,-18,-5,-4,-4,-1
1541874455274774,-3,-5,5,-1,0,-3,-1,-1
1541874455274774,1,2,-1,-10,2,1,1,-1
1541874455275774,-1,-4,-6,-4,-2,-3,-1,-2
1541874455275774,1,4,6,0,-7,-4,-1,-2
1541874455296771,-3,-4,2,10,19,3,0,-2
1541874455296771,0,-1,-3,10,-8,13,4,2
1541874455297772,2,2,11,7,5,1,2,1
1541874455297772,0,4,9,-12,2,2,0,1
1541874455320803,-2,-5,-6,-2,-11,-9,-2,1
1541874455320803,-2,0,21,8,4,-8,-2,-1
1541874455320803,-3,-9,-59,-22,-7,-3,-2,-3
1541874455320803,1,7,1,-1,3,2,3,0
1541874455334855,0,-2,2,12,0,-2,-1,-3
1541874455334855,-2,-1,14,9,1,-2,-1,-2
1541874455335855,-2,-1,11,-17,-5,1,0,-1
1541874455335855,-3,-2,-19,12,-5,-6,-2,-2
1541874455356839,-2,-2,-10,-47,-14,-9,-2,-2
1541874455356839,-3,-5,-14,3,-18,-8,-4,-4
1541874455357820,1,3,17,-10,12,17,7,2
1541874455357820,1,3,5,22,10,5,-2,0
1541874455380837,-2,-4,-7,8,-1,17,-1,-2
1541874455380837,1,1,-8,-13,18,-23,1,-2
1541874455380837,0,-2,3,-1,-1,-17,-4,-2
1541874455380837,-4,-5,6,10,17,2,-1,-2
1541874455393867,0,-2,-1,19,-6,10,-1,-1
1541874455393867,-1,0,-9,-23,-23,-29,-9,-2
1541874455401873,1,1,7,23,1,13,3,0
1541874455401873,2,0,1,7,15,15,3,1
1541874455416868,-1,-1,4,-13,-8,-24,-5,-1
1541874455416868,-2,-3,-7,5,17,14,1,0
1541874455417866,2,1,3,5,-22,-11,-3,-1
1541874455417866,-3,-2,-2,-28,-2,-5,-3,-1
1541874455439885,1,1,4,15,1,1,-1,2
1541874455439885,-1,-2,-5,-4,-13,-3,-2,-1
1541874455440886,-3,-3,-2,2,5,-3,-2,-1
1541874455440886,1,3,4,16,-3,18,5,2
1541874455453895,0,-1,0,-18,-9,-8,2,0
1541874455453895,-3,-5,-10,1,-7,-2,-4,-1
1541874455461917,-1,3,1,-7,-8,-1,-3,0
1541874455461917,-1,-1,2,1,-3,-8,-1,-2
1541874455476923,1,1,-5,-13,0,19,2,1
1541874455476923,1,1,2,2,-6,-12,2,1
1541874455477915,-4,-4,-6,-15,-2,-3,-5,-4
1541874455477915,-1,-2,0,-12,-11,0,1,0
1541874455500950,3,1,5,15,-6,-6,-1,0
1541874455500950,2,2,-4,-8,21,19,2,0
1541874455501953,-2,-3,-2,6,-7,-3,1,-3
1541874455501953,2,-1,1,-5,-15,-12,-2,1
1541874455513960,-3,-3,-2,4,5,18,-2,-2
1541874455513960,-1,1,-2,7,1,-14,3,-1
1541874455521968,0,-2,-3,-6,19,4,-4,-2
1541874455521968,0,1,-1,1,-6,-5,-2,-1
1541874455536980,0,1,-2,-2,-5,-5,1,-2
1541874455536980,1,0,3,-2,-1,14,2,1
1541874455537980,-2,-2,-5,8,-7,-3,0,0
1541874455537980,0,-2,0,-13,0,-3,-1,0
1541874455560033,-1,1,0,5,-15,-12,-3,0
1541874455560033,-1,-1,-3,-12,12,9,0,-3
1541874455560981,1,1,5,4,-20,-16,-1,1
1541874455560981,1,2,-1,5,7,9,2,0
1541874455574044,-2,0,2,7,14,-3,1,-1
1541874455574044,-2,-4,-5,-2,-1,6,-2,-1
1541874455582014,0,-3,-3,-9,-8,0,-3,-2
1541874455582014,-1,-2,-1,-3,-6,-12,-2,-2
1541874455597027,1,2,4,5,12,1,1,1
1541874455597027,0,0,1,4,-2,2,-1,-2
1541874455598027,-2,-4,-4,-7,0,-3,-2,-2
1541874455598027,0,-1,1,4,-5,-2,-1,-1
1541874455620045,-1,1,-1,0,6,4,1,-1
1541874455620045,0,0,1,-3,-3,2,-1,0
1541874455621025,-1,0,-2,2,3,3,2,-1
1541874455621025,-1,-1,-1,0,5,-1,-1,-1
1541874455634056,0,-1,0,0,-5,-5,-2,0
1541874455634056,-2,-3,-2,4,5,-3,-2,-2
1541874455642061,-3,0,-1,-1,-1,5,-2,-1
1541874455642061,-1,-1,-2,-9,1,-3,-2,-2
1541874455658065,-3,-4,-5,-13,0,-29,-6,-4
1541874455658065,2,3,10,21,-25,10,3,2
1541874455665080,4,4,-1,-2,7,12,6,3
1541874455665080,-1,2,-1,6,8,8,2,0
1541874455681092,-1,-4,-4,-6,-1,3,-2,-2
1541874455681092,-2,-3,-6,-12,-2,-9,-6,-3
1541874455681092,-1,-2,0,-1,-6,-8,-3,-1
1541874455681092,-1,0,0,-1,-4,-3,-2,-2
1541874455703110,-1,-1,1,0,1,2,0,-1
1541874455703110,-1,-2,-2,0,2,2,0,-1
1541874455704107,2,0,1,2,5,3,0,0
1541874455704107,-1,-2,-2,-2,3,-5,-2,-2
1541874455717121,-1,0,0,5,-3,1,1,0
1541874455717121,-1,2,-1,-1,2,4,-1,0
1541874455725126,-1,1,-1,-4,6,0,-1,-2
1541874455725126,-1,0,-2,-2,-6,-4,-1,-3
1541874455740119,0,2,0,4,-3,2,-2,-1
1541874455740119,1,0,0,-2,5,3,1,1
1541874455742135,-1,-3,-3,-5,1,-5,-1,-2
1541874455742135,-1,-5,0,2,-5,-4,-1,1
1541874455770158,-2,-4,0,1,-1,4,1,2
1541874455770158,0,-2,-3,-4,6,-2,0,-1
1541874455772155,-1,-2,-1,1,-2,0,-2,-2
1541874455772155,-1,-1,1,0,-2,0,-2,-1
1541874455776162,-1,-2,-2,-2,-2,0,-1,-1
1541874455776162,-1,-1,0,-3,-1,-4,-3,-1
1541874455786157,0,0,0,1,0,-4,-3,-2
1541874455786157,1,-1,-1,1,-1,-1,-2,0
1541874455800168,1,0,1,1,4,4,0,0
1541874455800168,-1,2,0,-1,-2,0,-1,-1
1541874455802168,-1,-2,-1,-4,0,0,-2,-1
1541874455802168,-2,-1,-1,-3,-3,-4,-4,0
1541874455823206,-1,0,0,0,-1,-2,0,0
1541874455823206,-1,-1,-2,1,3,1,-1,1
1541874455825208,-3,0,1,-2,1,3,1,0
1541874455825208,-2,2,-1,-2,-4,-2,0,-1
1541874455836214,-1,-1,0,1,-1,0,0,1
1541874455836214,-1,0,-1,-1,1,0,1,-1
1541874455845218,-2,-1,-2,-1,2,5,-3,0
1541874455845218,-1,-1,-3,-2,-5,-28,-2,-3
1541874455860224,-1,1,1,3,6,4,-1,-1
1541874455860224,1,-2,-4,-4,-4,-6,-2,-1
1541874455862234,-2,-1,2,2,1,10,4,2
1541874455862234,2,-1,1,3,8,12,-3,2
1541874455890257,0,-1,1,3,8,16,2,-3
1541874455890257,0,-3,0,-1,-4,-16,1,-5
1541874455892259,2,-1,-1,-3,-12,-23,-4,-2
1541874455892259,2,2,0,-2,7,11,0,0
1541874455896242,0,0,0,-2,-12,3,-4,-2
1541874455896242,-1,0,0,3,10,0,-3,-1
1541874455905266,1,2,0,0,1,6,3,0
1541874455905266,-1,1,-2,1,-7,-5,-1,0
1541874455928281,0,-1,-3,-2,-4,-2,-3,1
1541874455928281,-1,-2,-2,-3,-10,3,1,0
1541874455929270,0,-2,-1,-1,11,-6,-3,-2
1541874455929270,-1,-1,-2,0,-3,0,0,-4
1541874455943279,-1,-1,-1,-1,0,-1,0,0
1541874455943279,-1,-2,0,0,-5,-2,-1,0
1541874455944279,-2,0,-2,-2,3,-3,0,1
1541874455944279,0,-1,1,-1,-1,8,2,1
1541874455956325,-1,-1,-2,-3,-3,-6,1,-1
1541874455956325,-3,-2,-1,2,3,1,0,0
1541874455965300,-1,-1,-1,-2,-2,2,-2,-3
1541874455965300,-3,-2,-1,-2,-3,1,0,0
1541874455980328,0,0,-3,-1,-3,-9,-2,0
1541874455980328,0,0,1,-2,2,5,1,2
1541874455982329,1,2,0,3,-3,0,-3,-1
1541874455982329,-1,-1,-1,0,1,-1,-1,0
1541874456003336,-4,-5,-2,-2,-3,-5,-1,-2
1541874456003336,-2,-5,-4,-5,-1,3,-3,-1
1541874456004337,2,1,-1,-2,-3,-2,-1,4
1541874456004337,0,1,0,-2,-3,-3,0,-2
1541874456016355,2,-2,0,0,3,5,1,3
1541874456016355,-2,-2,-3,-4,1,-2,-2,-4
1541874456025346,-3,-3,0,2,-8,-7,0,-3
1541874456025346,-1,-1,-3,2,6,1,-1,0
1541874456040410,-3,-1,-1,-2,0,1,-4,-3
1541874456040410,1,0,-1,0,-1,3,-1,-1
1541874456042377,0,-2,-1,-3,-2,-1,-1,0
1541874456042377,-2,-2,-1,1,-2,2,0,-2
1541874456063394,0,0,-1,-1,-1,-2,1,1
1541874456063394,-1,0,-1,1,2,3,-1,-1
1541874456065393,0,0,0,-1,1,0,0,-3
1541874456065393,0,1,-1,-1,-6,-7,-2,-1
1541874456076403,1,0,0,0,0,-5,-1,-1
1541874456076403,-1,1,0,0,-2,2,-2,0
1541874456093417,-3,-3,0,-2,1,4,0,-2
1541874456093417,-2,-1,1,-1,-2,0,-2,0
1541874456107427,1,-1,1,0,-1,-5,-2,0
1541874456107427,1,0,0,0,-1,0,-1,0
1541874456109409,-2,0,-1,-1,0,2,-2,-2
1541874456109409,1,0,-2,-1,0,-1,1,-2
1541874456130480,0,0,-2,-2,0,1,0,0
1541874456130480,0,0,0,1,2,-1,0,-2
1541874456132428,-1,-2,0,0,-1,-1,-2,-1
1541874456132428,-2,-2,-1,1,-2,-1,0,1
1541874456159464,-1,-4,-2,-2,0,-1,0,-3
1541874456159464,0,0,-1,-2,-4,-3,-1,-1
1541874456207486,-1,-1,-2,-2,-2,-2,0,0
1541874456207486,-1,-1,1,0,0,1,-1,-2
1541874456208506,-2,2,1,0,1,1,0,-2
1541874456208506,2,-1,0,0,2,-1,2,1
1541874456227557,1,-2,-1,-1,1,-2,0,1
1541874456227557,-2,-4,-1,-3,-4,-2,0,-3
1541874456236564,0,-2,-1,0,-1,3,-1,-2
1541874456236564,-1,-1,0,3,-3,-11,-1,-1
1541874456238525,-2,-3,-1,-2,-2,-4,-3,-2
1541874456238525,-2,0,1,0,0,0,-1,-3
1541874456244536,-2,-4,-5,-10,-4,1,-1,0
1541874456244536,0,-1,0,0,1,1,-2,-1
1541874456244536,0,0,-1,-1,0,-4,0,-1
1541874456244536,1,0,0,-2,-2,0,0,1
1541874456246517,-2,1,1,2,-1,1,-2,-1
1541874456246517,-2,0,0,1,-2,-4,0,-1
1541874456256545,0,-1,-1,-2,0,1,0,0
1541874456256545,-1,-1,0,3,1,4,0,-1
1541874456265542,-2,-1,0,-2,1,-5,0,-2
1541874456265542,-2,1,0,-1,-1,-1,-4,0
1541874456280563,-1,-1,1,3,-1,-3,-2,-2
1541874456280563,-1,1,-1,-2,1,3,1,1
1541874456281564,1,-1,-1,2,1,2,0,-2
1541874456281564,-2,-2,-2,-2,-4,-5,-2,-1
1541874456310588,0,1,-1,-1,-3,0,0,0
1541874456310588,-2,0,0,0,-3,0,0,0
1541874456311589,0,0,-1,-5,-1,-1,0,-1
1541874456311589,-1,-1,-1,-7,-7,0,-2,-1
1541874456316587,-1,-1,0,7,10,2,0,1
1541874456316587,-1,-2,-1,0,0,0,-1,-1
1541874456340646,-1,2,-1,3,-2,-1,-1,-1
1541874456340646,-1,-2,-1,0,-1,0,0,-1
1541874456341613,-1,0,0,-3,-3,0,-2,-1
1541874456341613,1,-2,-3,-9,-2,-4,-2,-1
1541874456361663,-3,-2,0,1,0,0,0,-1
1541874456361663,-2,-1,-1,-3,-2,1,-1,-2
1541874456370636,0,-2,-1,0,-2,-1,0,0
1541874456370636,-1,-1,-1,1,0,-1,1,-3
1541874456371635,0,-1,-1,1,-2,-3,-2,0
1541874456371635,-1,-1,-1,1,3,0,0,0
1541874456446703,-1,-1,0,-1,-1,0,-1,-1
1541874456446703,-1,-1,-1,-1,-1,1,-2,1
1541874456448697,-1,-1,-1,0,0,0,1,-1
1541874456448697,-1,0,-1,3,0,0,-1,-2
1541874456448697,-1,-1,-2,-1,-1,-3,-1,-1
1541874456448697,-1,-1,0,-1,-3,-2,-1,-1
1541874456499715,-3,-1,0,1,-1,-2,1,0
1541874456499715,-1,0,0,1,0,0,-1,-1
1541874456500731,-1,-1,-1,-4,-2,-2,1,-2
1541874456500731,-1,-1,0,-1,1,-1,-3,0
1541874456551775,-1,-1,-1,1,-1,0,0,0
1541874456551775,0,0,-1,0,-2,-1,-2,0
1541874456553778,-2,-1,-1,-1,-1,-3,-1,0
1541874456553778,0,-1,-1,-2,0,0,0,-1
1541874456553778,-1,-1,0,-1,-1,0,-1,0
1541874456553778,-2,1,-1,-1,-2,0,0,-1
1541874456642838,-1,0,0,0,0,1,-1,-2
1541874456642838,0,-2,-1,0,-1,-2,-2,1
1541874456643830,1,-1,-1,0,-1,0,-3,-2
1541874456643830,-1,-1,-1,-1,0,-1,0,0
1541874456643830,6,0,-1,-2,-2,-2,2,10
1541874456643830,6,2,2,0,2,-1,1,21
1541874456656840,-4,1,0,-2,-1,-2,-4,-3
1541874456656840,-10,-3,0,1,-2,-3,-5,-41
1541874456657840,7,1,-1,-2,0,0,3,19
1541874456657840,7,0,-1,0,0,-2,-3,37
1541874456658841,19,2,-1,0,0,0,7,84
1541874456658841,-9,-3,-2,-1,0,-2,-6,6
1541874456662844,21,4,2,3,3,2,22,29
1541874456662844,39,8,-2,-5,-1,2,6,87
1541874456687864,-70,-13,-2,-5,-3,-4,-31,-128
1541874456687864,-7,0,3,1,-2,-6,-9,107
1541874456688865,-9,-1,-1,0,-1,-2,-7,-56
1541874456688865,14,3,2,2,-1,0,4,68
1541874456715886,13,1,-1,1,3,2,4,18
1541874456715886,18,2,-4,-2,-2,2,11,8
1541874456716888,19,3,0,0,2,1,4,111
1541874456716888,-24,-2,1,3,1,2,-16,-52
1541874456718888,-22,-6,-2,-3,-3,-4,-8,65
1541874456718888,-21,-5,0,-1,-1,-4,-9,-82
1541874456721891,19,2,-1,0,1,0,6,115
1541874456721891,17,0,-2,-1,-1,0,7,18
1541874456730912,3,-2,-1,0,-2,0,-3,-5
1541874456730912,-6,0,-2,-2,0,0,1,-97
1541874456859018,10,1,0,-1,0,1,9,45
1541874456859018,-20,-4,-1,0,-1,-2,-8,-73
1541874456861008,2,2,0,0,-1,2,1,-27
1541874456861008,8,-1,-2,-1,-1,-1,6,33
1541874456862020,-6,0,-1,-2,-1,0,-7,-41
1541874456862020,-13,-5,-2,-2,-3,-2,-7,-75
1541874456880034,5,1,1,1,0,-1,2,25
1541874456880034,0,-1,-2,-1,0,2,-6,-94
1541874456895046,-17,-2,0,-1,-3,-3,0,-19
1541874456895046,4,-1,-3,-1,-1,-3,4,44
1541874456912061,3,-1,-1,1,1,0,3,13
1541874456912061,-3,-1,-1,-1,0,-1,-3,-22
1541874456913041,4,1,0,0,-1,-1,2,28
1541874456913041,4,0,1,-1,0,-1,1,33
1541874456934076,-8,-3,-1,-1,0,-3,-7,-46
1541874456934076,0,-1,-1,0,-1,0,-2,13
1541874456936059,2,0,-1,0,-2,0,0,19
1541874456936059,-10,-4,1,-1,-1,-1,-3,-52
1541874456964137,7,1,-2,0,-2,-1,1,41
1541874456964137,1,1,-1,-2,-1,1,0,16
1541874456965083,0,-2,0,-1,0,-2,2,20
1541874456965083,0,1,0,0,2,-2,-1,-9
1541874456967085,3,1,-3,1,-2,-1,-2,2
1541874456967085,0,-1,-1,-1,0,-1,1,10
1541874456994124,4,-1,-1,-1,2,-1,0,30
1541874456994124,2,0,-1,-2,0,-3,-1,2
1541874456996125,-6,0,2,-2,0,-1,3,-14
1541874456996125,-1,-1,-2,-1,-1,-1,2,3
1541874456997123,-17,-3,-2,-1,-2,-1,-6,-36
1541874456997123,2,-2,-1,1,-2,-2,2,11
1541874457017124,-5,-3,-1,-1,-1,-1,-2,-24
1541874457017124,0,-1,-3,-1,-1,-1,-2,16
1541874457018123,5,0,-1,-2,-2,-1,-1,19
1541874457018123,-4,-2,-1,0,-2,-2,3,-14
1541874457092236,0,-1,1,-1,-2,0,0,11
1541874457092236,6,1,0,0,1,2,2,17
1541874457092236,-5,0,0,-2,-2,-2,1,-35
1541874457092236,-5,-1,-2,0,-1,1,-3,-8
1541874457143221,5,0,0,-1,1,-1,0,18
1541874457143221,-2,-1,-1,-1,0,-2,0,-10
1541874457152244,2,-1,0,0,-2,0,-1,-14
1541874457152244,1,-2,1,-1,-1,-1,1,38
1541874457153239,2,1,-1,-1,-2,0,-1,10
1541874457153239,-1,-1,-1,-2,-1,-1,1,3
1541874457154241,-1,0,0,0,-2,-1,-2,5
1541874457154241,2,-2,-2,-1,0,0,-1,2
1541874457182315,3,1,-1,0,0,0,0,-3
1541874457182315,-1,-2,-2,-1,-1,0,-3,20
1541874457184257,-8,-2,-1,-2,-2,-2,-2,-41
1541874457184257,2,1,-1,0,1,0,1,10
1541874457204324,-1,-1,0,0,-2,-1,0,-5
1541874457204324,-2,-3,-2,-2,0,0,0,1
1541874457206279,0,-2,0,2,-1,0,1,8
1541874457206279,1,0,-2,-1,0,1,0,12
1541874457206279,-5,0,-2,-1,0,-2,-1,-24
1541874457206279,3,-2,0,-1,-1,-1,2,8
1541874457226342,-6,1,2,1,4,2,1,3
1541874457226342,2,5,3,3,4,3,6,3
1541874457227301,-1,-4,-4,-3,-3,-4,-6,-5
1541874457227301,-4,0,1,2,-2,1,-3,-25
1541874457231309,14,5,-2,-2,-3,-4,-3,54
1541874457231309,-9,-6,0,-2,-4,-1,3,-79
1541874457255329,14,3,-1,-1,-1,-3,6,112
1541874457255329,-13,6,-2,-1,-2,-3,-3,-49
1541874457257312,9,16,11,9,8,14,24,-62
1541874457257312,-14,-26,-4,-3,-2,-7,-22,-39
1541874457270377,-3,-11,-8,-8,-8,-8,-7,13
1541874457270377,-8,-1,-6,-6,-4,-6,-15,16
1541874457272342,11,3,5,5,5,8,15,57
1541874457272342,3,9,0,-1,-2,-2,-8,-33
1541874457301347,-4,-7,6,6,8,7,7,-38
1541874457301347,3,-5,-4,-7,-6,-6,-9,13
1541874457302356,-15,-8,-9,-8,-9,-11,-12,-29
1541874457302356,3,2,1,0,-1,0,2,38
1541874457307351,-1,2,-1,-5,-2,-2,-7,-4
1541874457307351,3,3,0,0,1,-2,5,73
1541874457325384,1,-1,1,0,-1,1,2,-14
1541874457325384,3,0,-2,0,0,1,8,47
1541874457326385,-1,5,0,1,1,0,-2,-5
1541874457326385,3,0,0,1,-3,0,6,5
1541874457427444,-3,-5,-2,-1,-1,0,-4,-2
1541874457427444,-4,-1,0,1,-1,-1,-3,21
1541874457451518,7,9,3,3,3,4,8,-34
1541874457451518,-1,-5,0,0,1,0,-2,-14
1541874457453465,-16,-12,-9,-7,-7,-10,-16,-4
1541874457453465,4,6,0,-1,0,2,6,-7
1541874457454503,-13,-6,-2,-1,-2,-2,-6,-11
1541874457454503,8,4,2,3,3,3,3,49
1541874457475502,3,0,-3,-2,-2,-2,-3,9
1541874457475502,-1,-3,-4,-2,0,-1,6,37
1541874457475502,-2,2,-1,-1,-2,-2,0,-3
1541874457475502,2,-3,-1,-1,-1,-3,-1,-6
1541874457476484,2,2,0,0,1,0,-2,3
1541874457476484,-2,-1,-2,0,-1,-1,0,-14
1541874457490514,-3,-3,-2,-1,-3,-2,-2,-5
1541874457490514,1,-1,-1,-1,-1,-2,-3,2
1541874457490514,0,0,2,0,1,3,3,-7
1541874457490514,-2,-3,0,1,1,0,-1,-2
1541874457503520,1,0,-1,0,-3,-1,-1,-2
1541874457503520,1,0,-1,0,-1,1,1,0
1541874457503520,-2,-1,-1,0,-1,-1,-1,1
1541874457503520,-1,-1,1,-2,-1,0,2,-12
1541874457525576,3,2,2,0,0,2,1,5
1541874457525576,-1,-2,-1,-2,-1,-2,0,0
1541874457526524,-1,-1,0,-2,-2,-2,-3,-1
1541874457526524,0,-2,-1,0,0,1,0,-1
1541874457540588,-1,-1,-2,-3,-1,-1,-3,-2
1541874457540588,-3,0,1,-1,1,0,1,3
1541874457563571,2,-1,-1,-1,-1,-1,-3,2
1541874457563571,-2,-2,-4,-1,-2,-2,-3,-4
1541874457565568,-1,0,-2,0,0,-1,0,-3
1541874457565568,-1,-1,-1,-2,-2,-1,0,3
1541874457624615,-2,-2,-1,-2,-2,-1,-3,-5
1541874457624615,-1,0,-1,-1,-1,0,0,-1
1541874457625611,-1,-2,0,-1,0,0,-1,-3
1541874457625611,1,0,-1,0,0,2,2,0
1541874457626601,0,-2,-2,-1,-2,-3,-2,3
1541874457626601,1,0,0,-2,0,-1,-2,-3
1541874457639630,0,0,0,-1,0,-1,-1,1
1541874457639630,-1,0,0,-2,-2,0,-2,-6
1541874457640612,-2,-1,-2,0,-1,0,1,-1
1541874457640612,2,1,0,2,1,1,0,5
1541874457677641,-1,-2,-1,-1,-1,-1,-1,1
1541874457677641,-2,-1,-1,1,-2,-1,-2,0
1541874457678646,-2,-1,-2,-1,0,-1,1,-2
1541874457678646,-5,-2,0,-2,-1,-1,-3,-6
1541874457706686,1,-1,1,-1,0,0,1,2
1541874457706686,0,-2,0,0,0,-2,0,4
1541874457707683,0,-1,-1,-1,0,1,2,-2
1541874457707683,-5,-3,-1,0,0,-3,-3,-11
1541874457709676,-1,-2,1,-2,0,0,-1,2
1541874457709676,2,-1,-1,-1,0,-1,1,2
1541874457728702,-1,-2,-1,-2,-3,-2,-2,-2
1541874457728702,-1,-1,1,-1,-1,0,2,3
1541874457729693,-2,0,0,0,-1,0,-2,-2
1541874457729693,-2,0,1,0,1,0,-1,-5
1541874457730683,5,2,0,2,1,2,7,11
1541874457730683,0,-3,-1,0,-1,0,-2,2
1541874457733688,-2,-2,-2,-3,-2,-1,-2,-2
1541874457733688,-2,-2,-2,0,-2,-1,-2,-1
1541874457750754,3,-1,-3,-1,-1,-1,-1,1
1541874457750754,2,2,0,-1,0,-1,4,30
1541874457752704,-14,-3,-1,-2,-2,-3,-4,-42
1541874457752704,-3,-2,-2,-3,-1,-3,-4,-16
1541874457772735,8,2,-2,-1,-1,0,0,25
1541874457772735,8,4,-1,0,-2,2,3,11
1541874457774719,7,-2,-3,-4,-3,-1,11,96
1541874457774719,11,3,-1,0,1,1,3,0
1541874457787782,-33,-9,-2,-2,-5,-7,-29,-85
1541874457787782,-17,-2,-1,-1,0,-3,-4,-105
1541874457789744,21,3,-2,0,1,0,12,58
1541874457789744,43,9,-1,-1,2,4,30,102
1541874457801757,-84,-19,-4,-3,-2,-6,-50,-70
1541874457801757,-5,0,2,0,-4,-4,1,111
1541874457817754,-24,-3,-5,-3,-3,0,-16,-128
1541874457817754,11,-3,-1,-2,-4,-4,7,108
1541874457832818,21,4,-2,-1,0,2,18,-75
1541874457832818,-32,-9,4,1,0,-3,-4,16
1541874457834779,31,10,-10,1,1,2,13,99
1541874457834779,-10,-25,-5,-7,1,1,-16,46
1541874457855801,-6,-6,1,-2,-1,0,0,-30
1541874457855801,13,7,-2,0,1,7,-1,60
1541874457856796,-6,4,2,0,-2,-2,-2,-12
1541874457856796,-3,0,1,2,-2,-4,-4,-39
1541874457893830,17,4,1,2,0,-1,6,42
1541874457893830,-6,0,2,-2,-2,-3,-4,-87
1541874457895812,22,10,6,2,1,-1,-2,60
1541874457895812,-30,0,0,-1,-5,-5,-14,-128
1541874457896833,24,5,0,0,-2,0,10,76
1541874457896833,13,1,-3,-2,-1,-1,3,-30
1541874458097990,-14,-9,2,-1,-1,0,-13,-83
1541874458097990,-14,0,1,-1,-1,-2,-5,-68
1541874458098988,20,2,-2,-2,1,3,16,64
1541874458098988,3,3,2,0,0,2,1,39
1541874458103995,3,-6,-3,-3,0,0,0,31
1541874458103995,-21,-3,-1,-1,-1,-1,-16,-92
1541874458104977,10,6,0,1,2,0,5,34
1541874458104977,4,-4,-3,-2,-1,1,-1,0
1541874458118006,7,3,-1,1,0,2,4,25
1541874458118006,4,5,-2,-1,1,1,3,8
1541874458120004,0,-1,-1,-1,-1,-2,-5,-17
1541874458120004,-4,3,1,-1,-1,0,-3,12
1541874458125047,-2,-1,0,-1,1,-1,1,15
1541874458125047,-2,-15,1,0,0,1,4,-15
1541874458141025,-13,-14,-4,-4,-3,-6,-9,-24
1541874458141025,1,-1,-2,-1,-1,-2,-1,28
1541874458148030,-3,1,1,0,-2,-1,-1,-16
1541874458148030,14,16,5,4,5,6,11,20
1541874458162040,-10,-4,-4,-4,-2,-4,-10,-19
1541874458162040,23,11,5,4,4,5,15,35
1541874458163023,-12,-2,-5,-3,-3,-3,-13,-58
1541874458163023,-1,2,3,1,1,3,5,40
1541874458171048,-1,-4,-4,-2,-1,-2,0,-14
1541874458171048,-11,-5,-4,-3,-4,-7,-10,-3
1541874458193101,-6,-11,-7,-9,-7,-10,-9,56
1541874458193101,6,3,3,4,5,7,13,-2
1541874458195068,2,6,3,0,1,-1,0,1
1541874458195068,-7,-5,-4,-3,-4,-3,-2,36
1541874458207076,-5,-3,0,1,1,2,-1,-43
1541874458207076,-13,-8,-7,-6,-7,-10,-14,10
1541874458224091,12,10,5,4,3,7,10,14
1541874458224091,-6,-6,-2,-2,-2,-2,-6,-22
1541874458225085,2,3,1,0,1,2,5,-21
1541874458225085,-2,-7,-7,-6,-6,-7,-11,21
1541874458238081,-1,2,1,0,1,0,-3,-34
1541874458238081,5,1,0,1,0,-2,-3,0
1541874458245107,-5,-3,-2,-1,-2,-2,-4,-18
1541874458245107,9,1,-2,-1,-2,-2,1,15
1541874458247090,-11,-5,-3,-1,-2,-2,-2,-7
1541874458247090,-4,-3,-1,-2,-1,-3,-3,2
1541874458268160,-2,-3,-1,-1,1,-1,-2,-12
1541874458268160,2,6,2,0,1,0,5,12
1541874458270125,2,-1,-1,-1,-1,-1,-4,16
1541874458270125,4,4,0,0,2,3,7,-4
1541874458298184,1,2,1,0,1,-1,-2,19
1541874458298184,4,5,0,0,-1,1,1,32
1541874458321168,-1,1,-1,-1,-2,-2,0,22
1541874458321168,-2,-2,1,1,1,0,-2,-28
1541874458322169,5,1,0,-1,-1,0,2,7
1541874458322169,-2,-5,-2,0,0,-1,-3,-9
1541874458323171,0,3,2,1,0,1,0,-9
1541874458323171,7,2,1,1,1,2,4,15
1541874458327206,0,4,-3,0,-2,1,2,-9
1541874458327206,-3,0,17,0,0,-5,-5,-1
1541874458368195,-1,-5,-5,-2,-1,0,3,-6
1541874458368195,-5,-3,0,-2,-3,-3,-6,-1
1541874458368195,6,-2,0,1,-1,1,3,4
1541874458368195,3,1,-8,-4,-3,-3,-5,2
1541874458373190,-6,-1,1,0,-1,-1,-4,-12
1541874458373190,-2,0,-2,-1,0,-3,-2,-2
1541874458374204,-6,0,-3,-1,-1,-2,-1,-9
1541874458374204,1,-3,-1,-1,0,0,3,14
1541874458396261,0,1,1,1,2,1,3,-6
1541874458396261,-1,-3,-3,0,0,0,-1,-2
1541874458398226,-1,-2,-2,-2,-2,-3,-2,7
1541874458398226,-2,-3,0,0,-1,1,0,-12
1541874458411237,-1,0,2,0,-2,-3,-1,3
1541874458411237,0,0,-2,-1,-3,-1,-1,-5
1541874458413238,2,1,-1,-1,-4,-3,-2,-2
1541874458413238,0,1,1,-2,-2,1,0,6
1541874458457273,2,1,1,2,0,0,0,-2
1541874458457273,-5,-6,-6,-3,-2,-2,-3,-5
1541874458458254,1,0,-1,-2,1,2,0,3
1541874458458254,-1,-2,0,0,0,-1,0,5
1541874458459254,0,-4,-1,0,-1,-1,0,-2
1541874458459254,-1,-1,-2,-1,-1,-1,-2,-7
1541874458472285,3,2,2,1,1,3,2,6
1541874458472285,-2,-3,-4,-1,-1,0,0,3
1541874458473274,-2,-1,-1,0,0,0,-1,-2
1541874458473274,0,0,-1,-1,0,-1,0,0
1541874458494338,4,-1,0,-1,1,-1,2,18
1541874458494338,-2,0,0,-1,-3,0,-1,-6
1541874458495299,-6,-1,1,-1,0,-3,-4,-17
1541874458495299,0,2,-2,-1,-2,-2,-2,1
1541874458497303,-2,-1,-3,-2,-2,-3,-1,-11
1541874458497303,2,-1,-3,1,0,0,0,11
1541874458508313,1,-1,0,0,0,1,0,5
1541874458508313,-4,-3,-1,0,-2,0,0,-7
1541874458509313,0,0,-1,-1,-2,-1,-2,8
1541874458509313,0,-1,-1,-3,-1,-1,-1,-4
1541874458521319,1,-3,0,10,-1,0,-2,-3
1541874458521319,3,1,-3,-9,0,1,0,5
1541874458530366,-3,-3,-3,-1,-1,-3,-2,2
1541874458530366,-6,-3,-1,-2,-2,-2,-3,-19
1541874458545378,0,-2,-3,0,0,0,0,-1
1541874458545378,-2,-1,0,-1,-1,0,2,6
1541874458569397,-1,-3,-2,1,1,0,-2,-8
1541874458569397,-1,-1,-3,3,-2,-1,-1,2
1541874458570361,-4,-2,-1,-4,-1,-1,-1,0
1541874458570361,-2,-2,0,3,0,-2,-1,8
1541874458591361,-5,-2,-2,-4,-1,0,-2,-28
1541874458591361,0,-1,-1,0,1,-1,-2,-1
1541874458592360,0,-1,-1,-5,0,0,1,-1
1541874458592360,-3,-3,-2,-2,-1,-1,-3,7
1541874458614379,1,3,-1,3,-1,0,-1,0
1541874458614379,-4,-2,-2,-1,0,-2,0,1
1541874458615378,1,-1,0,-4,0,-1,-1,4
1541874458615378,0,-1,0,2,0,0,0,-10
1541874458619397,1,-2,0,-1,-2,-2,1,31
1541874458619397,-5,0,3,-1,-2,-1,-2,-34
1541874458635393,-3,-1,0,-5,-2,-1,-2,-2
1541874458635393,0,1,0,1,-1,-1,-2,-6
1541874458637395,2,0,-2,-1,0,-1,0,2
1541874458637395,3,0,0,-3,-2,0,0,13
1541874458651461,-3,0,-1,3,-1,-1,0,-6
1541874458651461,-4,-2,-3,1,0,0,-1,-9
1541874458665437,5,2,3,-3,-1,1,0,5
1541874458665437,-1,2,-5,-3,-1,0,2,6
1541874458666432,0,0,-1,-1,1,1,-1,-8
1541874458666432,-1,-5,-3,0,-3,-6,-6,5
1541874458671441,1,2,2,2,3,4,2,2
1541874458671441,-2,-2,-1,-3,-2,-2,-1,0
1541874458688455,-3,-1,-2,-2,0,0,-2,-2
1541874458688455,-3,-2,0,-1,2,-1,0,0
1541874458689452,1,-2,-2,-1,-3,0,0,-2
1541874458689452,4,4,2,3,0,3,2,2
1541874458709507,-16,-9,-6,-7,-4,-3,-14,-22
1541874458709507,16,10,6,4,8,13,25,20
1541874458710460,-11,-8,-4,0,-3,-5,-5,-10
1541874458710460,4,0,7,4,-2,2,0,7
1541874458741477,-1,-3,-7,2,-4,-7,-8,6
1541874458741477,-7,-4,1,-2,-4,-8,-17,-28
1541874458741477,0,1,-1,2,3,4,5,-3
1541874458741477,1,3,1,-3,4,3,9,91
1541874458756489,6,4,1,-2,4,3,6,-4
1541874458756489,1,-3,-4,-6,-2,-3,3,84
1541874458757490,-6,-2,-2,-6,-2,-2,-4,-11
1541874458757490,-3,-4,-4,-6,-4,-4,-6,-4
1541874458801543,0,-3,-3,0,-4,0,-1,-2
1541874458801543,7,7,4,5,1,0,2,1
1541874458802524,-11,-7,-1,-2,-3,-4,-5,-17
1541874458802524,-1,-8,-3,-1,-1,-5,-4,-21
1541874458804545,4,-1,-1,-3,-2,-2,3,25
1541874458804545,-6,-3,-2,-1,-2,0,-4,-40
1541874458807529,3,4,3,1,2,0,0,11
1541874458807529,-1,0,-1,0,0,0,-4,-27
1541874458817590,7,6,4,2,2,4,10,10
1541874458817590,-4,-3,-3,-1,-5,-4,-7,-10
1541874458817590,0,0,0,-5,-3,-1,0,-2
1541874458817590,-1,-3,-3,0,1,0,0,-7
1541874458838568,-1,-2,0,-1,-1,0,2,-6
1541874458838568,0,1,-1,-4,0,0,1,-3
1541874458838568,3,0,-2,0,0,-2,-1,5
1541874458838568,2,1,-1,-1,-2,-1,-2,-6
1541874458860589,-1,-1,0,1,-1,-2,-3,6
1541874458860589,-2,-1,-2,-2,-4,-2,-3,-4
1541874458861590,2,1,-1,1,-2,-1,-3,-5
1541874458861590,-4,-3,-2,-1,-2,-2,-2,-3
1541874458914632,-9,-3,1,-1,-2,-1,-2,-9
1541874458914632,3,2,2,1,1,3,0,-1
1541874458915629,0,-2,-3,-1,0,1,0,1
1541874458915629,-1,1,0,-1,-2,-3,-1,-3
1541874458916614,2,1,-1,0,1,1,1,5
1541874458916614,-7,-5,-1,-1,-1,0,0,-15
1541874458936652,1,-3,-1,0,0,-3,-2,5
1541874458936652,1,1,0,1,-1,-1,0,-8
1541874458938633,-1,0,-2,-3,-2,-2,-1,4
1541874458938633,-1,-1,-2,-2,-2,-4,-1,1
1541874458939654,2,2,0,-1,-1,-1,-2,0
1541874458939654,0,0,-1,-1,2,1,0,-2
1541874458951699,-1,0,0,0,-1,0,0,3
1541874458951699,-1,-1,-2,0,-2,-1,-2,-5
1541874458953659,-1,0,0,0,1,1,2,2
1541874458953659,-2,-3,-2,0,0,-2,1,0
1541874458954699,0,-1,-1,-1,-1,0,-1,1
1541874458954699,0,0,0,-2,-2,-2,-2,-3
1541874458974713,5,3,3,0,-3,0,1,3
1541874458974713,0,-1,0,-1,-3,-1,-2,-3
1541874458975672,1,1,-1,0,-3,-2,0,-4
1541874458975672,3,-1,1,-2,-1,-2,-2,-3
1541874459047737,2,-1,1,-2,-1,-3,-3,-6
1541874459047737,1,0,0,-2,-2,-2,-1,-5
1541874459056744,0,1,0,-2,1,1,-1,-3
1541874459056744,-1,0,-1,0,1,1,0,-3
1541874459058745,-1,0,-1,0,-2,-2,0,-1
1541874459058745,-3,0,-2,-2,-1,0,0,-3
1541874459059742,-3,1,0,0,-2,-2,-1,0
1541874459059742,-1,-1,-1,-1,-1,0,0,-1
1541874459064745,2,0,-2,-2,0,-1,-2,3
1541874459064745,-2,0,-1,-2,-1,-1,-3,-7
1541874459087749,-2,-1,-2,-1,0,1,2,-1
1541874459087749,-1,0,-1,-2,0,-1,-1,2
1541874459088762,-3,-2,-2,-2,0,-2,1,0
1541874459088762,-1,-1,-1,0,-2,1,0,1
1541874459100778,-1,0,-1,0,-2,1,0,1
1541874459100778,-2,-3,-1,-2,0,0,-1,1
1541874459101779,-2,-2,-1,0,0,0,-2,0
1541874459101779,0,-1,-2,-1,-1,0,-1,0
1541874459122796,-4,-3,-1,-2,0,-3,-1,-1
1541874459122796,0,1,-1,1,0,0,2,-1
1541874459123776,0,-2,-1,-1,1,1,0,0
1541874459123776,-2,-1,-1,-1,1,-1,0,-2
1541874459129801,-2,-1,0,1,0,-2,-1,-5
1541874459129801,1,0,-3,-2,0,-1,-1,1
1541874459130802,-4,-3,-2,0,-2,-1,1,-1
1541874459130802,-5,-2,-1,-1,-1,-1,-3,1
1541874459152816,0,0,0,-1,1,2,1,1
1541874459152816,-4,0,-1,-3,0,0,-1,2
1541874459153802,-2,-1,-1,-2,-2,-2,-1,-2
1541874459153802,-2,-2,-2,0,-3,-1,0,-2
1541874459167866,5,1,-1,0,0,-1,0,23
1541874459167866,0,-1,-1,-4,-1,0,0,-16
1541874459167866,-5,-1,1,-5,0,-1,-2,-8
1541874459167866,-3,-4,-1,9,-2,-3,-3,2
1541874459189857,2,2,10,3,-1,0,1,-6
1541874459189857,3,-2,-21,0,0,-1,0,15
1541874459190866,-1,0,4,-13,-1,-2,-2,1
1541874459190866,0,0,-7,-4,0,-1,-2,-3
1541874459205857,-5,-4,2,-6,-3,-2,-3,3
1541874459205857,-4,3,21,10,1,0,-2,-3
1541874459212866,1,-5,1,3,0,0,2,-1
1541874459212866,4,-3,-31,-3,-3,-1,1,0
1541874459227861,4,-2,-18,0,-4,-2,3,4
1541874459227861,-3,-2,16,-9,-2,-2,-3,-5
1541874459227861,-1,2,9,6,1,-1,-2,0
1541874459227861,1,3,11,4,2,-1,2,3
1541874459249896,-8,-3,-9,-11,-2,-2,-1,-4
1541874459249896,0,-1,-3,7,-3,1,0,-6
1541874459250896,0,-2,-2,-1,-3,-4,-3,5
1541874459250896,0,1,4,-2,1,2,3,2
1541874459263910,-6,-1,1,3,0,-3,-10,-26
1541874459263910,10,6,3,1,5,6,7,9
1541874459272905,-1,0,-4,0,-2,0,-1,1
1541874459272905,-4,-1,6,-3,-2,-2,-3,-9
1541874459287916,-4,-3,-2,0,1,1,-3,-9
1541874459287916,-1,-6,-8,-5,-3,-3,-3,-2
1541874459287916,4,9,6,3,0,0,-1,4
1541874459287916,1,-10,-17,-3,1,2,2,-2
1541874459309943,2,0,-15,-2,-1,0,1,5
1541874459309943,-4,-3,-9,-2,-2,-4,-5,-5
1541874459310943,-3,-4,-10,-1,1,-2,1,-2
1541874459310943,0,8,19,-4,-1,-1,-3,1
1541874459323953,-1,-1,6,0,0,-1,1,-5
1541874459323953,0,-6,-3,-1,-2,-2,-1,9
1541874459331960,-5,0,-8,-1,-1,0,-5,-8
1541874459331960,1,3,4,1,-1,-2,-1,4
1541874459346972,-1,-1,5,-3,-1,-1,-2,-3
1541874459346972,-1,2,1,0,0,-2,-2,-7
1541874459347963,2,0,4,1,1,0,2,2
1541874459347963,-1,-2,-2,-3,0,-2,-1,-2
1541874459369990,-1,1,4,-1,-2,-1,-2,-2
1541874459369990,-4,-4,-3,-1,-3,-2,-3,1
1541874459370990,-2,-3,0,1,0,0,0,-2
1541874459370990,-2,-1,2,-1,-1,-1,0,-2
1541874459393008,2,2,7,2,2,0,2,5
1541874459393008,4,0,-22,-4,-1,-1,-1,-1
1541874459394009,0,-3,-17,-2,-2,1,3,4
1541874459394009,1,3,6,0,-1,1,0,3
1541874459407036,3,-1,-12,0,0,1,3,4
1541874459407036,-2,1,22,-1,-1,0,-2,0
1541874459408001,-4,3,7,1,1,0,1,0
1541874459408001,-4,-12,-15,-3,-1,-1,-4,-12
1541874459430036,0,0,0,3,-1,-2,2,0
1541874459430036,-6,-5,-4,-1,-2,-3,-5,-6
1541874459431037,5,-1,-5,-3,-1,-2,-6,-3
1541874459431037,4,9,18,0,0,0,1,7
1541874459444047,1,-3,-5,-2,-1,-2,0,7
1541874459444047,-1,-1,-2,0,-2,-1,-2,-3
1541874459452054,-2,-1,-1,-1,-3,-2,0,-1
1541874459452054,-1,-2,-3,1,0,0,0,2
1541874459467065,-7,-5,11,-2,0,-2,-2,-6
1541874459467065,-1,-2,-20,-2,0,2,4,8
1541874459468058,-3,-2,10,0,-2,-2,-2,-1
1541874459468058,1,1,-5,-3,1,0,-2,0
1541874459490120,-4,0,-4,2,-1,1,-2,0
1541874459490120,1,1,11,-1,-1,1,1,1
1541874459491121,-1,0,4,-1,0,-1,-2,-1
1541874459491121,-4,-2,-3,-2,-3,-2,-1,-2
1541874459513102,-2,0,-2,1,-1,1,1,-2
1541874459513102,-1,0,8,0,0,-1,0,0
1541874459520107,-1,-4,-7,1,-2,-2,-2,-4
1541874459520107,-2,8,20,1,-2,-4,0,-2
1541874459528115,1,-8,-7,-1,0,-2,-3,-1
1541874459528115,-2,3,8,1,0,-1,0,-4
1541874459529117,0,-1,-23,-2,-1,0,2,2
1541874459529117,-2,-5,-5,-2,-1,-1,-2,3
1541874459550115,0,2,4,0,0,3,0,0
1541874459550115,0,0,6,-2,0,-3,-1,-1
1541874459551133,-1,0,9,0,2,1,1,1
1541874459551133,-2,-1,-7,1,1,0,-1,1
1541874459573133,-1,4,9,0,-1,0,-1,-1
1541874459573133,-1,-2,-5,0,-2,0,-2,1
1541874459574131,0,1,6,-4,-2,-5,-4,-2
1541874459574131,3,1,-1,11,-3,-2,0,-2
1541874459587196,2,-3,-6,-10,-2,-6,-3,-3
1541874459587196,2,2,5,-2,-2,0,0,-3
1541874459588154,2,0,-3,-7,-2,-3,-1,-2
1541874459588154,2,-1,-7,8,0,1,-1,-2
1541874459610214,0,3,6,-9,-3,-2,-2,-3
1541874459610214,-1,-5,-9,-6,-2,1,-1,0
1541874459611160,-3,-6,-14,7,-1,-1,-3,-2
1541874459611160,0,-3,1,-4,-2,-1,-2,-2
1541874459633196,2,3,-1,5,-1,0,0,1
1541874459633196,1,2,0,1,0,0,1,1
1541874459634197,-1,-2,2,-3,-2,-1,-2,0
1541874459634197,-2,1,6,-5,0,1,-1,-1
1541874459656212,0,-3,-32,0,-1,-1,-1,-2
1541874459656212,-2,-3,-1,3,-1,-3,-2,0
1541874459656212,0,1,3,-4,-2,-1,0,1
1541874459656212,-1,-2,-4,-6,-4,-1,-2,-2
1541874459670226,0,2,14,-1,-1,0,0,0
1541874459670226,-1,-3,-7,6,1,0,-2,-1
1541874459671221,0,0,1,1,1,-1,0,-2
1541874459671221,-2,-2,-3,2,-1,0,1,1
1541874459692278,-3,-1,2,0,-1,-1,0,2
1541874459692278,-1,0,-4,-6,-1,0,2,0
1541874459700285,-3,-1,2,0,1,1,0,-2
1541874459700285,-4,-3,-2,-6,0,-1,-2,0
1541874459707254,-3,-2,0,1,-1,2,-1,1
1541874459707254,-3,1,-1,-2,-1,-2,0,1
1541874459708246,-2,0,9,1,1,0,1,1
1541874459708246,-3,-5,-18,-2,0,-2,0,-1
1541874459738273,-1,3,3,1,1,0,0,-2
1541874459738273,-2,-2,2,-1,-2,-2,-2,1
1541874459739280,0,-3,-3,-3,-2,0,1,-1
1541874459739280,-2,-1,3,-2,2,0,-1,0
1541874459760297,-7,-3,3,0,-3,-2,-4,-3
1541874459760297,2,1,-6,2,2,1,6,-2
1541874459761277,-4,-4,-1,0,-3,-2,-1,0
1541874459761277,-4,0,3,-1,0,-1,-2,-10
1541874459767302,8,5,2,2,3,5,9,10
1541874459767302,-5,-3,4,0,-1,0,-3,1
1541874459768284,-1,1,-4,-3,-4,0,-1,-8
1541874459768284,-3,-4,-3,-2,-4,-5,-5,-15
1541874459790320,-8,-6,-6,-1,-4,-6,-10,2
1541874459790320,9,7,5,-5,-2,3,3,-1
1541874459790320,3,-4,4,0,0,-5,-5,7
1541874459790320,1,1,2,-1,-2,0,2,6
1541874459813374,-7,-8,-3,-5,-3,-6,-10,-9
1541874459813374,-2,1,1,5,2,-1,0,1
1541874459814374,6,4,2,0,0,0,0,15
1541874459814374,-1,-1,2,-2,-1,0,-5,-5
1541874459828386,2,0,0,2,1,1,4,-2
1541874459828386,-12,-9,-5,-4,-3,-6,-8,-4
1541874459835391,6,1,-3,0,1,3,3,-1
1541874459835391,-4,-1,0,-1,-2,-3,-2,-6
1541874459858409,1,3,0,1,2,5,8,12
1541874459858409,-3,-4,-2,-4,-3,-4,-3,-4
1541874459859408,-6,-3,-3,-3,1,-2,-3,-6
1541874459859408,0,0,6,2,0,-2,2,6
1541874459873421,2,0,-7,-2,0,-1,-4,-4
1541874459873421,-1,1,3,-1,-2,-4,-4,-8
1541874459874367,1,1,-2,0,0,2,5,7
1541874459874367,2,3,2,0,0,2,4,4
1541874459889440,-1,0,8,1,-2,-2,-1,-4
1541874459889440,1,-2,-12,-1,-1,-1,-1,-1
1541874459889440,-2,1,2,-1,1,-2,-1,-5
1541874459889440,-1,0,16,-1,-2,-3,-3,1
1541874459910429,2,0,1,0,1,1,-1,-4
1541874459910429,-1,0,0,1,-1,0,2,0
1541874459910429,-4,-2,1,0,-1,-1,-1,-5
1541874459910429,2,-1,-10,-2,0,1,1,3
1541874459933468,-1,-1,14,-1,-3,-1,-1,0
1541874459933468,2,-3,-31,-1,1,1,-1,0
1541874459934428,-1,0,0,-1,-1,-1,-2,-4
1541874459934428,1,0,0,-2,0,0,1,2
1541874459947444,1,0,-5,-1,0,-1,0,0
1541874459947444,0,0,11,-2,0,2,0,-2
1541874459948444,-2,0,-2,-2,-1,1,-1,-5
1541874459948444,-2,-1,-8,0,-1,-1,0,-2
1541874459978468,-2,-2,0,-1,-1,-2,-1,-4
1541874459978468,0,0,6,-1,1,0,-2,0
1541874459978468,-2,1,-7,0,-1,0,-2,-3
1541874459978468,-4,-2,-7,-2,-1,1,-3,-2
1541874459993480,1,3,1,-1,0,-1,1,-3
1541874459993480,-2,-1,0,-1,-1,0,-2,1
1541874459994478,-2,-4,-2,0,-3,-1,-1,1
1541874459994478,-1,0,-1,-1,-2,-3,-3,-1
1541874460007490,-1,-4,-2,0,-2,-2,-1,-1
1541874460007490,-1,0,-4,-4,-1,-2,1,2
1541874460008491,-1,-1,-1,1,-1,1,0,0
1541874460008491,1,2,-4,5,-3,1,0,1
1541874460030509,-2,1,0,-7,-1,0,-3,0
1541874460030509,1,-1,0,-1,-1,-1,0,0
1541874460031500,-3,-4,6,-1,-1,-1,-2,-1
1541874460031500,4,0,1,1,1,0,0,3
1541874460053526,3,-1,-3,1,0,0,-1,1
1541874460053526,-4,-1,1,1,-2,-1,1,21
1541874460053526,3,1,-2,1,0,-1,2,-8
1541874460053526,7,3,-2,-2,2,0,1,-10
1541874460067537,-12,0,0,1,-1,-2,-10,-22
1541874460067537,6,-4,-1,-1,-2,0,5,4
1541874460068539,1,-5,-4,-3,0,-2,-2,48
1541874460068539,-19,-2,3,-2,-3,-4,-6,-45
1541874460090555,23,4,-5,1,0,3,10,93
1541874460090555,10,3,2,3,1,-1,3,29
1541874460091556,7,3,0,1,-1,1,2,33
1541874460091556,-27,-6,-3,-8,-6,-4,-20,-71
1541874460113574,-37,-11,-6,-1,-1,-3,-9,-128
1541874460113574,7,-1,3,0,-3,-4,-8,88
1541874460113574,15,5,7,0,1,2,10,17
1541874460113574,39,4,-4,2,4,5,21,127
1541874460126585,20,4,-5,-7,-4,0,-1,93
1541874460126585,-55,-10,3,0,-2,-4,-27,-115
1541874460134590,-10,-1,-1,-3,-3,-5,-10,69
1541874460134590,8,0,1,4,2,0,5,37
1541874460149603,31,3,-1,-3,0,1,12,127
1541874460149603,-17,-3,-2,-5,-2,-1,-6,-89
1541874460165596,-35,-5,-5,-2,-1,-2,-15,-127
1541874460165596,-24,-9,1,2,-1,-3,-4,-113
1541874460173621,-8,-7,-6,-2,-2,-5,-2,-2
1541874460173621,28,7,0,-3,-1,2,10,106
1541874460174603,9,2,0,2,0,0,6,24
1541874460174603,3,-2,-7,-7,-2,0,0,28
1541874460186632,-11,0,7,2,0,1,0,-73
1541874460186632,9,2,1,1,1,1,5,-2
1541874460195631,3,-2,-3,-1,1,2,4,46
1541874460195631,-12,-1,-1,1,0,-1,-9,-78
1541874460209649,-1,0,-1,0,-3,-1,-1,7
1541874460209649,4,1,0,-1,-1,0,4,5
1541874460218651,10,3,6,-1,-3,-6,-3,1
1541874460218651,4,-1,-20,-4,-2,-2,-2,27
1541874460233665,-17,-3,-1,-1,-1,-3,-7,-86
1541874460233665,4,3,0,1,-3,-3,0,-5
1541874460234652,4,-3,-2,-3,-1,-2,-4,8
1541874460234652,3,2,6,-1,-1,-1,-2,12
1541874460246714,4,2,0,-1,1,-1,0,22
1541874460246714,7,-2,-5,-2,-2,-2,2,12
1541874460255668,0,0,-6,1,-1,-1,-1,-40
1541874460255668,4,1,9,1,-1,0,4,72
1541874460278699,2,-3,-4,-1,-3,0,-2,-30
1541874460278699,-5,1,6,3,2,3,-2,-29
1541874460279686,-4,-4,-6,-3,-1,-2,-4,-10
1541874460279686,7,-1,0,-2,-3,-3,2,30
1541874460292710,-4,-1,1,1,3,1,0,-28
1541874460292710,3,0,0,0,1,2,1,17
1541874460294697,1,2,0,-1,-2,0,1,-2
1541874460294697,-5,1,3,0,0,0,2,-31
1541874460306721,-2,0,0,0,0,0,-2,34
1541874460306721,0,-3,-4,-1,0,-3,-3,-37
1541874460315728,-2,0,-3,0,0,2,4,12
1541874460315728,4,0,1,1,3,0,-3,16
1541874460329743,-5,-2,-2,0,0,2,4,-26
1541874460329743,-3,-2,-1,-1,1,0,1,-1
1541874460336730,-6,-2,-1,-3,-1,-3,-4,-6
1541874460336730,-1,-2,-1,1,-1,1,-2,4
1541874460352751,0,1,-1,-1,0,0,-1,7
1541874460352751,2,0,0,-1,-2,-1,0,16
1541874460354745,-4,-2,-2,-1,-1,-1,0,-22
1541874460354745,-2,-1,-1,0,0,0,1,5
1541874460366753,-2,-3,-2,-1,0,-1,-2,4
1541874460366753,-6,-5,-2,-3,-2,-2,-3,-1
1541874460375775,-1,-1,0,1,1,1,2,2
1541874460375775,-4,-3,-1,-1,-1,-2,-3,-13
1541874460389774,-3,-3,-3,-3,-3,-5,-4,10
1541874460389774,6,4,1,1,-1,0,3,1
1541874460396802,-1,-3,-1,0,-1,-1,-1,-9
1541874460396802,3,1,-1,-2,0,-1,0,5
1541874460412809,-1,2,0,1,2,0,0,-9
1541874460412809,-1,-1,-1,-1,-2,0,1,4
1541874460414802,-4,-3,-2,-2,-1,-2,-3,-3
1541874460414802,0,-3,-1,-3,-4,-2,-1,-4
1541874460426820,-4,-3,-4,-3,-5,-4,-8,-1
1541874460426820,7,7,6,5,6,7,11,4
1541874460435818,-5,-1,-2,0,-1,0,1,-7
1541874460435818,2,2,1,0,0,0,-3,0
1541874460449819,0,-2,-2,-2,0,-1,3,3
1541874460449819,-5,-3,-4,-3,-3,-3,-7,-4
1541874460456880,-3,-3,-1,-3,-3,-3,-4,-6
1541874460456880,-7,-2,-1,-3,-2,-3,-4,-4
1541874460472856,12,7,1,3,3,6,9,13
1541874460472856,-3,-1,0,-2,-3,-3,-3,-1
1541874460474848,1,-2,-2,1,0,-1,1,4
1541874460474848,-5,-4,-2,-2,-1,-3,-3,-3
1541874460495874,0,-2,-4,0,-1,-2,-2,1
1541874460495874,-3,-1,12,0,-2,-3,-2,1
1541874460501879,0,-1,-16,0,1,0,-2,-3
1541874460501879,0,1,-2,-1,-1,1,3,5
1541874460509885,-2,-1,-1,-3,-2,-2,-1,-4
1541874460509885,0,-2,-3,0,0,0,1,3
1541874460516891,-1,3,5,1,-1,-1,-1,-4
1541874460516891,-2,-1,0,-1,-2,-2,0,0
1541874460532903,0,-1,-2,2,1,1,2,-1
1541874460532903,-3,-2,-5,-3,-4,-4,-1,1
1541874460534896,1,2,2,-3,0,1,1,-3
1541874460534896,-5,-3,-3,0,0,0,0,-5
1541874460555902,-3,-4,3,0,-1,-4,-8,-3
1541874460555902,-2,0,2,-2,0,-2,-2,-11
1541874460556918,-1,-3,-1,-1,-1,-3,-2,-2
1541874460556918,7,4,0,1,3,2,4,0
1541874460569969,-2,-4,0,-3,-1,-1,0,0
1541874460569969,-1,0,2,1,2,2,0,1
1541874460576975,2,0,0,-2,-1,0,0,0
1541874460576975,-2,-2,4,-3,-1,1,0,-1
1541874460592950,0,-4,5,0,-2,-1,-5,-5
1541874460592950,-1,-6,-38,-4,-1,-2,1,6
1541874460594934,1,2,10,-1,-2,-1,-1,5
1541874460594934,0,3,-2,1,-1,-1,-1,4
1541874460615968,0,0,-2,-3,-1,1,3,2
1541874460615968,-3,0,7,0,-1,0,0,-6
1541874460616966,-2,-3,-1,0,-1,0,-2,-2
1541874460616966,-3,-4,-1,1,1,-1,2,-1
1541874460629014,-3,0,-2,-1,0,-2,-4,-6
1541874460629014,4,4,9,-1,1,2,1,-4
1541874460637982,-2,-3,-6,0,1,-1,-1,-3
1541874460637982,1,2,10,-1,0,-2,-2,-2
1541874460652998,0,-2,-2,-2,-2,-2,0,-2
1541874460652998,-5,-4,-2,-4,-3,-5,-5,0
1541874460654999,1,-1,1,1,0,0,1,2
1541874460654999,-1,-2,-3,-2,0,-2,-2,0
1541874460676016,0,3,6,0,-1,-2,-1,2
1541874460676016,-6,-7,-15,-3,-2,-2,-4,-4
1541874460677017,-1,0,-8,-1,0,-1,0,1
1541874460677017,-1,-2,9,0,0,-1,0,0
1541874460689026,2,1,-3,-1,1,0,1,0
1541874460689026,0,1,4,-2,-1,-1,0,0
1541874460698027,-2,0,2,1,-2,2,-1,-2
1541874460698027,-1,-2,-10,0,1,0,-1,1
1541874460713044,-1,0,2,1,-1,0,2,2
1541874460713044,1,-3,2,0,0,-2,-2,-5
1541874460715046,0,0,-2,-2,-2,-2,0,-1
1541874460715046,2,0,-1,-1,-2,0,-2,-2
1541874460736045,0,1,0,-1,-1,0,0,8
1541874460736045,-4,-2,-1,-1,-1,0,-1,-14
1541874460737045,-2,-3,-2,0,0,0,-1,1
1541874460737045,0,0,0,1,-2,0,2,1
1541874460749056,-3,-1,-3,-1,0,-2,-3,-3
1541874460749056,0,2,2,2,1,2,2,5
1541874460758062,-2,-2,1,-5,-3,-4,-4,-3
1541874460758062,0,-1,-3,1,-1,1,0,-3
1541874460773127,1,-2,-3,0,-2,1,-2,2
1541874460773127,0,0,2,0,-2,-1,-2,0
1541874460775076,-1,-1,2,7,0,-1,-2,-2
1541874460775076,-2,-2,-7,-10,-3,-1,1,0
1541874460796148,-1,0,0,-1,-2,-3,-1,-3
1541874460796148,2,0,0,2,0,-1,1,1
1541874460797108,0,1,2,-8,0,0,1,1
1541874460797108,-1,-3,-4,3,-1,-2,-1,-2
1541874460809120,-2,-2,-1,5,1,1,0,1
1541874460809120,-5,-1,-1,-3,-1,0,0,3
1541874460818109,0,3,2,2,0,3,0,2
1541874460818109,-3,-3,-3,0,-1,1,-1,0
1541874460833142,-2,-1,-1,-2,-3,-2,0,-3
1541874460833142,0,0,1,-2,-2,-2,-2,1
1541874460835140,3,0,0,13,0,-2,1,-3
1541874460835140,3,0,3,-11,-2,-2,-2,-3
1541874460856157,2,-2,3,1,1,-1,-3,-4
1541874460856157,3,1,0,-6,1,-1,0,0
1541874460857149,-1,-1,0,-10,-3,-2,-1,-3
1541874460857149,1,1,-2,14,0,-1,-4,-1
1541874460869167,-1,-1,-2,6,1,0,1,-2
1541874460869167,1,0,-2,-9,-4,-3,-1,-1
1541874460878165,0,-1,0,-4,-1,-1,-1,-1
1541874460878165,1,2,2,-5,-1,0,-1,1
1541874460893186,-1,0,0,-6,-2,-1,-1,-1
1541874460893186,0,1,1,3,1,1,-1,0
1541874460895188,-2,-4,-5,-4,-1,1,-2,-2
1541874460895188,-1,1,-2,0,-1,-3,-1,-2
1541874460916219,0,-1,-2,2,0,0,-1,0
1541874460916219,2,-1,0,2,-1,-1,0,2
1541874460918206,-1,-1,-1,-3,-2,-3,-1,0
1541874460918206,0,-2,-1,2,-1,1,-1,-1
1541874460929250,-1,-1,-1,-4,0,1,-1,-2
1541874460929250,-3,-4,-3,-2,-1,0,-2,0
1541874460938204,-2,0,-1,0,-1,1,0,0
1541874460938204,-3,0,0,-1,-1,-1,1,0
1541874460953269,-3,0,-3,15,-2,-1,0,0
1541874460953269,0,-1,0,-12,-1,-2,0,0
1541874460955236,-1,-2,0,5,1,0,-1,2
1541874460955236,-2,-1,-1,-1,-2,-1,0,-1
1541874460976247,-1,-2,-2,0,1,-2,0,1
1541874460976247,-1,0,-1,7,1,2,0,-4
1541874460977234,-1,0,-3,-3,0,0,-1,0
1541874460977234,-2,-3,-3,0,-3,-1,-3,0
1541874460989262,1,1,0,-5,-1,-1,0,0
1541874460989262,-2,-2,-1,2,0,-1,-2,0
1541874460998249,2,3,3,-2,2,2,4,-4
1541874460998249,0,1,0,0,0,0,1,2
1541874461013282,-4,-2,-4,-7,-2,-5,-6,0
1541874461013282,1,1,0,0,0,1,1,-4
1541874461015282,0,2,-1,4,2,0,0,-4
1541874461015282,-1,-2,0,-3,-1,0,3,2
1541874461035334,-4,-4,-2,-6,-3,-2,0,-12
1541874461035334,-1,-1,-2,0,-2,-1,-3,2
1541874461037293,-8,-9,-5,-4,-7,-9,-14,2
1541874461037293,-6,-2,-2,0,1,3,-4,-28
1541874461049309,14,13,6,0,4,10,14,3
1541874461049309,-16,-7,-5,-3,-1,-5,-4,-4
1541874461058296,15,12,6,5,8,8,13,-3
1541874461058296,-9,-7,-2,-3,-4,-6,-7,10
1541874461073309,12,9,10,5,5,8,9,17
1541874461073309,-5,-2,-8,2,-1,0,-2,-16
1541874461075325,-11,-6,1,-4,0,1,0,-6
1541874461075325,9,4,5,1,1,0,3,-4
1541874461095346,-10,-6,-26,-4,-1,-2,-5,-5
1541874461095346,11,5,25,3,0,-1,3,10
1541874461097337,-10,-1,-17,-4,-7,-6,-7,-8
1541874461097337,4,1,4,-1,-2,-2,-3,18
1541874461109356,-6,-7,-10,-5,-3,-5,-8,-7
1541874461109356,-3,0,3,-2,-1,-1,1,-3
1541874461118344,6,-1,-2,1,0,-1,6,11
1541874461118344,2,4,2,0,-1,0,0,-3
1541874461133411,-8,0,0,-4,-3,-6,-4,-6
1541874461133411,2,0,9,1,0,-2,-4,3
1541874461135373,-2,-5,-12,-3,-3,-1,-2,-9
1541874461135373,10,7,-4,3,2,4,10,12
1541874461155392,-5,-11,-4,-2,-1,0,-2,-1
1541874461155392,-1,3,11,-3,-3,0,-1,1
1541874461157384,-1,1,9,-2,-1,-2,-2,2
1541874461157384,-2,-3,-11,-3,0,-2,-4,-10
1541874461169403,-3,4,6,-3,-1,-2,-3,-3
1541874461169403,1,-3,-8,2,1,0,1,1
1541874461178392,3,-1,2,-1,-2,1,-5,4
1541874461178392,-5,-3,-5,0,0,-2,-1,-6
1541874461192422,2,5,10,-1,-1,-1,-2,4
1541874461192422,2,-1,-13,-1,0,0,1,2
1541874461199426,-4,-3,5,-3,-2,-1,-3,-1
1541874461199426,-2,-4,-1,-2,-1,-3,-6,-9
1541874461215420,1,0,2,1,2,1,-1,3
1541874461215420,-2,-2,-7,0,-1,-1,1,0
1541874461217422,-1,-3,-3,-1,-2,0,0,-2
1541874461217422,-1,2,1,-1,-4,-2,-2,-2
1541874461229488,-2,-3,8,-4,-4,-4,-2,0
1541874461229488,0,-4,-31,-2,-1,0,-1,6
1541874461238448,0,1,2,1,3,0,3,4
1541874461238448,-3,-1,2,-1,-1,0,-1,-3
1541874461252469,-2,0,-2,-3,-1,-1,-3,-4
1541874461252469,1,1,-4,0,-1,0,1,1
1541874461259474,2,1,7,-2,-2,-1,1,2
1541874461259474,-4,-4,-3,-2,-1,0,-1,1
1541874461275522,0,-2,-3,-2,-3,-3,-2,3
1541874461275522,1,-1,2,-1,-1,-2,-2,0
1541874461277484,-2,0,-4,-1,0,-4,-3,-3
1541874461277484,-2,-3,8,0,-1,-3,-3,4
1541874461289497,0,2,-17,-6,-3,-2,-2,-4
1541874461289497,-3,-2,2,1,-2,-1,-2,-1
1541874461298486,3,0,-1,-1,2,2,1,0
1541874461298486,-1,-3,0,-3,-2,-2,-3,0
1541874461312516,0,-6,-2,2,-3,-3,-1,-1
1541874461312516,0,-2,3,-2,-2,-2,-2,-6
1541874461319520,4,-1,-3,2,0,0,-2,20
1541874461319520,-2,-1,-3,0,-1,0,-2,16
1541874461335569,-5,-3,-1,1,0,1,1,-15
1541874461335569,-2,1,5,2,2,1,-1,-21
1541874461337535,14,2,3,0,-1,0,4,58
1541874461337535,19,2,-6,-4,-1,0,5,103
1541874461349545,-41,-9,-1,-3,-3,-5,-21,-88
1541874461349545,-1,0,2,0,0,-1,3,56
1541874461358533,11,2,-4,-4,-3,0,0,64
1541874461358533,-13,-1,-3,-1,1,2,-4,-101
1541874461372599,47,9,3,5,5,3,19,127
1541874461372599,-28,-4,-1,-3,-4,-3,-17,-115
1541874461379569,-35,-6,3,1,-2,-6,-11,-71
1541874461379569,10,0,0,0,4,4,9,87
1541874461395616,-37,-13,1,5,-1,-5,-14,-89
1541874461395616,40,4,-3,-14,0,1,16,127
1541874461397578,10,7,-1,2,2,3,2,-92
1541874461397578,1,-2,-4,-2,-2,-3,-3,10
1541874461418599,5,4,5,-8,0,0,-3,-73
1541874461418599,6,-1,3,7,0,1,7,118
1541874461419581,-15,-8,-6,0,-2,0,-5,-68
1541874461419581,-2,0,3,8,-3,1,2,-9
1541874461432593,8,1,-4,-13,-2,1,3,68
1541874461432593,0,-1,-3,-2,-2,-2,0,-1
1541874461439599,8,3,4,2,0,1,3,-15
1541874461439599,-25,-5,-2,3,0,-4,-4,-34
1541874461455663,5,-2,-2,5,-3,-3,2,-31
1541874461455663,-7,-1,-1,-1,-2,-2,-4,-18
1541874461457619,4,1,-2,-1,-1,1,5,30
1541874461457619,0,-1,-2,-15,1,0,1,41
1541874461478636,1,2,0,3,-2,0,2,-37
1541874461478636,-8,-4,-3,-5,3,2,-2,-41
1541874461479636,-1,1,-1,1,-2,2,-2,27
1541874461479636,-6,-5,-4,0,-2,-3,-6,-17
1541874461491656,-4,-1,1,-9,-4,-2,2,26
1541874461491656,2,1,2,4,-1,-1,-1,-39
1541874461500653,0,-2,0,1,-5,-5,0,17
1541874461500653,-2,3,3,-3,-2,-2,-2,-27
1541874461515675,6,0,0,-2,0,0,1,21
1541874461515675,1,2,3,14,-2,-4,-2,-11
1541874461517659,-7,-2,-1,-12,-4,-4,-6,-19
1541874461517659,5,3,-1,-17,-1,-1,0,-16
1541874461538693,1,-1,-1,8,-1,-2,-2,9
1541874461538693,-1,1,1,2,0,-2,-3,-14
1541874461539681,-2,2,4,-20,-1,-1,2,15
1541874461539681,4,-1,-1,50,0,-2,-3,-2
1541874461553740,-2,-4,-6,-41,-5,0,-2,-23
1541874461553740,0,-2,-3,-5,-1,-1,0,-4
1541874461560725,-1,-3,-2,10,0,-2,-2,4
1541874461560725,-3,0,3,-3,-2,1,-1,-28
1541874461575760,3,2,0,10,1,-1,-1,25
1541874461575760,-4,-3,-2,3,0,0,0,-3
1541874461577742,-1,-2,-3,-5,-1,-2,-4,-7
1541874461577742,-1,1,-2,-7,1,-1,1,-1
1541874461598735,1,-1,-1,8,-1,0,-1,32
1541874461598735,-8,-1,-2,-9,-1,-1,-4,-53
1541874461599723,-1,-1,0,7,0,-2,0,17
1541874461599723,-1,-1,0,-10,-3,0,-1,-5
1541874461611746,0,-1,-1,17,2,-2,1,3
1541874461611746,-2,-2,-1,-6,-2,1,-1,4
1541874461620740,-2,-2,-2,2,-2,-2,-1,7
1541874461620740,-1,0,-1,-4,-1,-1,1,-11
1541874461635764,-1,-1,0,3,-1,0,-1,3
1541874461635764,0,-2,-2,1,0,0,-2,13
1541874461637766,-5,-2,-2,-3,1,1,1,0
1541874461637766,-4,-2,-1,-4,-1,-2,-3,-15
1541874461659796,0,0,0,2,-1,0,0,13
1541874461659796,-4,-1,-1,0,0,0,-1,-16
1541874461664792,1,-1,-2,0,1,1,-1,12
1541874461664792,0,0,-2,0,0,0,1,-1
1541874461671798,0,-2,-1,-1,-2,-1,0,2
1541874461671798,-3,-1,1,-1,-1,-2,1,2
1541874461680785,-1,-4,-1,2,-1,0,0,2
1541874461680785,3,2,1,-3,0,2,-1,-7
1541874461695816,-6,0,0,0,0,-1,-3,-7
1541874461695816,2,1,-2,-2,-2,-2,-2,1
1541874461697818,-4,-4,-2,-2,-5,-4,-4,-4
1541874461697818,-2,-6,-3,-5,-3,-5,-5,2
1541874461719836,-1,3,0,-2,-1,-2,-2,-1
1541874461719836,-9,-9,-5,-6,-4,-5,-8,-10
1541874461721818,4,4,0,5,3,1,4,0
1541874461721818,4,-1,0,1,2,3,1,2
1541874461731828,-2,-5,-4,-8,-5,-4,-2,6
1541874461731828,-1,-1,-3,-1,-3,-3,-3,-3
1541874461740832,-12,-8,-2,-2,-3,-6,-12,-20
1541874461740832,10,8,4,5,5,5,10,10
1541874461755864,-8,-5,-2,0,0,-2,-4,-7
1541874461755864,14,7,3,1,2,3,8,17
1541874461757864,-1,-3,-2,0,-1,-2,-4,-2
1541874461757864,-10,-6,-3,-5,-4,-4,-10,-17
1541874461777865,2,-2,0,2,-1,0,-2,-2
1541874461777865,-5,-3,-2,-2,-3,-1,-4,-2
1541874461779871,2,4,1,2,1,0,-1,-4
1541874461779871,-2,-2,-1,-3,-1,-4,-1,-2
1541874461791891,-2,-2,-4,-3,-2,-3,-5,-13
1541874461791891,2,2,1,0,1,0,5,9
1541874461808901,1,-1,-2,0,-2,0,0,7
1541874461808901,-5,-4,-2,-1,-2,0,0,8
1541874461815947,0,1,1,1,-1,-1,1,0
1541874461815947,-5,0,1,-2,-2,-2,-4,-5
1541874461817910,0,0,-2,-2,-2,-1,0,4
1541874461817910,-2,-1,-1,0,-2,-2,-1,-2
1541874461837964,3,1,2,2,-1,1,1,3
1541874461837964,1,1,-2,1,0,0,-1,-2
1541874461839912,-5,-3,1,-3,-3,-3,-3,8
1541874461839912,2,-2,-1,0,-3,-2,0,2
1541874461851940,4,1,0,0,1,0,1,0
1541874461851940,-4,-1,-1,-1,0,-2,-1,-10
1541874461860929,2,1,-2,0,1,1,1,0
1541874461860929,-1,1,6,2,-1,1,0,-1
1541874461875953,-2,-4,-24,-3,1,0,0,1
1541874461875953,0,-1,3,1,-2,1,0,0
1541874461876954,4,2,-2,-1,-1,1,2,3
1541874461876954,0,0,1,-2,1,-3,-1,-2
1541874461898012,1,2,5,2,1,3,3,-3
1541874461898012,-1,-1,-2,0,1,-1,0,8
1541874461899959,0,-1,-1,-1,0,-2,-1,3
1541874461899959,0,1,-3,-1,-3,0,1,3
1541874461911969,-3,-1,3,-1,-1,-2,-3,-3
1541874461911969,-1,-2,-4,-1,-1,-1,1,-3
1541874461920985,-1,-1,4,0,0,1,0,-1
1541874461920985,-2,1,-6,-3,0,-2,-2,4
1541874461935986,0,0,0,0,0,-1,1,2
1541874461935986,-2,-3,1,0,0,0,-2,-2
1541874461936987,2,1,1,0,0,0,3,-1
1541874461936987,1,-3,-2,1,-1,-1,-2,-4
1541874461958003,-1,0,1,-1,-1,0,2,11
1541874461958003,1,1,0,0,0,2,0,-1
1541874461960005,-1,-2,-2,1,1,0,0,-2
1541874461960005,-1,-1,-2,-1,0,0,-2,-3
1541874461972014,1,-1,3,1,1,-1,-1,-5
1541874461972014,-3,-2,1,0,-2,0,0,6
1541874461981022,-1,0,-2,-3,-1,-1,0,2
1541874461981022,0,1,-2,-2,0,1,3,-14
1541874461996088,-1,-2,1,1,-2,-2,4,57
1541874461996088,-9,-1,-3,-2,-1,-3,-9,-59
1541874461997056,-2,-1,-1,-1,-2,1,-2,-15
1541874461997056,2,0,1,-3,-1,-1,-3,19
1541874462018049,11,3,0,-3,-1,-1,5,7
1541874462018049,-5,-1,-2,4,5,-1,1,30
1541874462020052,-13,-1,0,-1,-3,-3,-7,-69
1541874462020052,-8,-3,0,1,0,-1,-7,-55
1541874462032061,7,-2,-2,-3,-1,0,3,5
1541874462032061,6,2,1,-2,-2,0,6,57
1541874462041069,-4,-3,0,3,0,-1,-5,-22
1541874462041069,-3,-1,-1,-2,-1,-1,-1,-3
1541874462056081,-3,-5,-2,-2,-3,-3,-6,-5
1541874462056081,10,2,-2,-1,0,0,0,5
1541874462057095,3,1,-1,3,0,2,10,34
1541874462057095,-2,-2,-1,-1,-1,0,3,11
1541874462078119,-9,0,1,-1,-1,1,-4,-23
1541874462078119,2,1,1,-2,0,2,2,-7
1541874462080120,-6,-2,-2,8,1,-1,0,11
1541874462080120,-3,-2,-5,-23,-2,-1,-2,9
1541874462092128,-9,-1,-2,1,-1,-1,-4,-35
1541874462092128,-2,-1,0,-4,-4,-2,0,-10
1541874462101135,7,0,1,-3,-3,-3,0,12
1541874462101135,1,0,1,6,-2,-2,0,9
1541874462115147,2,2,3,2,0,-2,-3,1
1541874462115147,-1,-2,-1,-3,-2,-2,-5,-32
1541874462122152,6,0,-2,1,0,-1,-1,23
1541874462122152,-1,-1,-1,15,0,-2,0,-14
1541874462138164,1,1,1,-12,-3,-1,1,1
1541874462138164,-2,-3,-1,4,-3,-3,-3,1
1541874462140165,3,-1,-1,-7,1,2,0,4
1541874462140165,2,0,1,7,0,-1,-1,28
1541874462152175,-6,-3,0,7,0,-1,-3,-32
1541874462152175,0,-1,-1,-17,-4,-4,-4,-6
1541874462161182,1,-1,-1,0,-1,0,-2,4
1541874462161182,5,0,-1,-3,-1,-2,0,12
1541874462175174,-3,0,0,4,1,1,0,-8
1541874462175174,-2,-1,-2,5,-2,0,1,-1
1541874462182180,-1,-1,-3,-3,-2,-1,-1,-6
1541874462182180,2,0,2,-5,-3,-1,-1,10
1541874462198192,0,0,-2,-4,0,-1,2,5
1541874462198192,-1,0,-1,16,0,0,-2,-2
1541874462200194,-1,-2,-2,-5,-2,-2,1,7
1541874462200194,-2,-1,-2,-1,0,0,0,3
1541874462212206,-3,-1,0,1,1,0,-3,-11
1541874462212206,1,2,0,-4,0,1,1,-1
1541874462221212,-1,-1,0,0,2,-2,-1,3
1541874462221212,-1,-1,-3,1,-1,0,-1,-4
1541874462235276,-2,-2,-2,0,-3,-1,-1,1
1541874462235276,-2,-3,-1,-5,0,-1,-1,4
1541874462242246,0,2,-1,-1,-2,-2,-1,13
1541874462242246,-4,-1,0,-1,-1,1,-3,-21
1541874462258250,1,2,1,1,-2,0,1,10
1541874462258250,-3,-3,-1,1,1,-1,0,-8
1541874462260244,2,0,-1,-2,-1,-1,0,1
1541874462260244,-1,-3,-1,-2,-1,0,1,12
1541874462272306,-3,-2,-1,0,-1,1,-2,-8
1541874462272306,1,-1,1,-2,-2,0,1,7
1541874462281257,1,1,-1,13,1,0,1,4
1541874462281257,0,1,-2,-5,-2,-2,1,-7
1541874462295269,-3,-3,-1,1,-2,-1,-2,-7
1541874462295269,-2,-3,0,-1,-1,1,-2,-4
1541874462302273,-2,0,1,-1,-1,1,-1,5
1541874462302273,4,1,1,4,-1,-1,1,12
1541874462318286,1,-1,0,1,1,-2,-1,8
1541874462318286,-7,-1,-1,0,-2,-1,-6,-35
1541874462320288,-2,-1,0,-6,-2,1,1,-12
1541874462320288,1,-1,-1,0,1,0,0,8
1541874462341304,7,-1,-2,-3,-3,-4,5,77
1541874462341304,2,-6,-5,-4,-4,-7,-6,-29
1541874462342306,-7,-4,-3,-3,2,-1,-3,12
1541874462342306,-20,-4,1,-5,-4,-4,-8,-86
1541874462355315,-2,0,1,5,4,2,-6,1
1541874462355315,-4,4,-1,-12,-8,-1,3,6
1541874462362321,5,-6,-3,15,-3,-7,-4,-8
1541874462362321,10,4,2,-5,8,9,10,32
1541874462378336,4,3,2,3,-1,0,8,28
1541874462378336,-11,-4,0,-9,-13,-2,-4,7
1541874462380372,15,14,9,-7,17,14,17,20
1541874462380372,-7,-4,1,14,-3,-6,-4,-9
1541874462400351,7,-2,-5,-11,0,-1,0,50
1541874462400351,3,1,-1,-1,-1,3,2,2
1541874462402353,-17,-8,-3,0,-7,-9,-15,-7
1541874462402353,2,-1,-1,6,-2,0,0,9
1541874462415362,-3,-1,-1,-22,-7,-1,-3,-40
1541874462415362,7,-2,-1,-1,4,0,5,62
1541874462422370,-3,0,-3,-2,-1,-1,-3,-27
1541874462422370,-4,-4,-4,-3,-5,-6,-9,-3
1541874462438437,1,1,1,9,-2,-1,-2,-33
1541874462438437,-1,2,1,5,5,1,4,-10
1541874462444440,-4,-4,0,-3,-5,-2,-1,-8
1541874462444440,4,3,-2,-4,-2,1,2,20
1541874462460417,-3,-2,-2,-2,8,0,-1,3
1541874462460417,3,-1,-1,3,-3,-1,-2,-14
1541874462462410,7,5,2,2,1,2,6,-5
1541874462462410,-6,-2,-1,-4,-1,-2,-2,3
1541874462474409,-8,-4,0,0,-2,-1,-2,-26
1541874462474409,5,0,1,5,5,1,-3,11
1541874462483416,-3,-5,-3,-6,-4,-2,-3,4
1541874462483416,3,0,1,-1,-1,-1,3,-4
1541874462498428,-2,-1,-3,-5,-1,-1,-1,-13
1541874462498428,-1,-1,0,4,0,0,-1,1
1541874462499429,-1,-2,-3,-9,-7,-4,-2,7
1541874462499429,-2,-3,-2,1,1,-1,-2,-3
1541874462520445,1,0,0,6,-2,0,-3,-9
1541874462520445,-2,-2,0,0,1,-1,1,6
1541874462522447,-2,-1,-3,-2,-1,0,-3,-8
1541874462522447,-1,-2,-1,-4,-2,-1,-4,4
1541874462534456,-1,0,0,1,-2,0,2,-4
1541874462534456,-5,-2,1,-1,1,-1,-1,-4
1541874462543463,0,0,-2,0,0,-1,-2,0
1541874462543463,0,-1,1,2,-1,-1,-1,2
1541874462558475,0,0,-10,-8,-3,-2,-3,-6
1541874462558475,-4,-2,3,-4,-2,-1,-2,-2
1541874462559476,0,-1,2,0,0,2,0,1
1541874462559476,5,0,1,-2,-1,0,1,9
1541874462580547,-5,-1,-1,3,0,0,0,0
1541874462580547,1,2,-9,3,1,0,-3,-2
1541874462587516,1,-2,6,-11,-3,-4,0,25
1541874462587516,3,-1,-3,-1,-2,0,5,13
1541874462594559,-9,-3,6,8,-2,-4,-7,-50
1541874462594559,-2,-1,-5,0,-2,-3,5,42
1541874462603523,14,2,-4,-9,-4,0,0,-19
1541874462603523,0,-1,0,4,3,0,-2,17
1541874462618542,-8,-4,2,-2,-1,-2,-4,-7
1541874462618542,0,1,2,17,-1,-1,8,-6
1541874462619543,-4,3,1,-11,-3,0,-6,-52
1541874462619543,-4,-2,-4,-6,-4,-1,-10,35
1541874462640539,-5,0,2,-1,2,-1,-5,-59
1541874462640539,13,5,6,-3,1,2,0,15
1541874462642541,-17,-7,-7,7,2,0,8,3
1541874462642541,15,2,1,-5,-3,-1,4,65
1541874462654550,0,-1,-1,6,7,2,-1,-40
1541874462654550,0,-5,-1,-4,-3,-4,2,42
1541874462663558,9,2,0,4,0,1,-1,34
1541874462663558,-14,-2,-2,-3,-3,-4,-13,-92
1541874462678569,4,1,-1,0,-4,-2,7,120
1541874462678569,-4,-4,-3,-12,0,0,-5,-115
1541874462679570,-2,0,-2,6,-1,-1,-5,32
1541874462679570,-10,-5,-2,-9,0,0,-2,-40
1541874462700586,1,0,1,0,-2,-1,-3,-13
1541874462700586,-6,-1,-2,-3,1,2,-3,-10
1541874462702587,-4,-2,-1,2,0,-1,0,11
1541874462702587,1,0,-2,-1,1,0,3,-2
1541874462723604,-1,-1,-3,-3,-1,2,2,12
1541874462723604,-3,0,-3,-1,-1,1,-2,-8
1541874462724606,1,-2,-1,3,-3,-3,1,29
1541874462724606,6,2,-1,2,-2,-4,4,30
1541874462738673,-5,-1,1,-6,-2,-3,-4,-83
1541874462738673,-5,0,1,3,-1,-2,-4,-6
1541874462739646,10,1,-1,0,-2,-3,1,27
1541874462739646,-8,-3,1,-1,-1,-1,-5,-61
1541874462760634,5,3,3,1,-1,-2,-5,13
1541874462760634,2,-1,-2,0,-1,0,-3,10
1541874462762636,4,0,1,0,0,0,-1,1
1541874462762636,4,-1,-1,-1,0,0,0,36
1541874462774645,-10,-6,-3,-3,-2,-2,0,-38
1541874462774645,1,2,0,0,0,-1,2,-9
1541874462783652,-3,-1,0,0,-1,0,-4,10
1541874462783652,1,0,-1,4,3,2,1,-18
1541874462798719,4,0,-1,-1,-2,-1,-1,22
1541874462798719,1,-3,0,-3,0,0,-2,16
1541874462800668,-3,-2,-1,-2,-2,-2,1,-3
1541874462800668,-7,0,0,-1,-1,1,0,-20
1541874462820700,3,-1,-2,-1,-2,1,0,7
1541874462820700,-1,-1,0,1,0,0,-2,1
1541874462822683,-1,-1,2,1,0,0,1,3
1541874462822683,2,0,-1,0,1,0,-1,-5
1541874462834747,-2,0,-1,-2,-2,-1,1,17
1541874462834747,2,-2,-1,-2,0,1,0,27
1541874462843699,-10,-2,-2,-3,-1,-2,-6,-62
1541874462843699,1,-2,0,-1,-3,-1,3,17
1541874462858711,3,0,0,0,0,0,3,18
1541874462858711,0,0,-3,-1,-3,-3,-2,1
1541874462859711,-2,-1,0,0,0,-1,-1,-10
1541874462859711,-2,-2,-2,0,-1,0,0,11
1541874462880728,2,0,0,0,0,1,1,13
1541874462880728,0,0,-2,-1,0,-1,1,-3
1541874462882730,-4,1,-2,-1,0,0,-1,-11
1541874462882730,2,0,-1,-1,0,-1,2,23
1541874462894739,2,-2,-1,-1,-1,0,-2,0
1541874462894739,-3,-1,0,0,1,-2,-3,-12
1541874462903746,-2,-1,-2,0,-2,0,-1,-3
1541874462903746,-2,-2,-2,-2,-2,0,1,-13
1541874462918758,2,0,-3,-3,-1,-3,-3,18
1541874462918758,-7,-2,0,-1,-2,1,-3,-11
1541874462919760,7,6,3,3,3,4,6,8
1541874462919760,-5,-3,-2,0,0,-2,-4,-10
1541874462940830,-6,-6,-3,-2,-3,-5,-4,1
1541874462940830,4,5,-2,0,0,1,2,6
1541874462942813,-8,-5,-2,-2,-1,-1,-1,-8
1541874462942813,-5,-2,-1,1,1,-1,-1,-2
1541874462954806,2,1,-1,0,2,2,0,9
1541874462954806,-2,-1,1,0,-1,1,-1,-1
1541874462963813,0,-1,-1,-2,-2,-2,-1,-1
1541874462963813,1,3,0,0,1,1,1,-3
1541874462978816,-6,-3,-1,-1,-1,-1,-1,1
1541874462978816,8,6,3,2,1,3,4,3
1541874462979815,-1,-2,-1,0,-1,-1,-2,-11
1541874462979815,-1,0,-1,-2,-1,0,-2,-3
1541874463000825,-3,-3,0,-2,-3,-2,-2,-4
1541874463000825,-3,-2,-1,-3,-2,-5,-2,5
1541874463002839,-4,-3,-2,0,-1,-1,-1,-9
1541874463002839,3,-1,-2,0,-2,-1,1,1
1541874463014849,4,2,0,2,1,2,0,-2
1541874463014849,-3,-4,-2,-1,-3,-2,-2,-3
1541874463023877,-2,1,1,0,-1,0,0,-3
1541874463023877,0,0,-2,-3,-3,-2,-3,-4
1541874463037871,1,2,0,0,0,1,1,3
1541874463037871,1,-1,-1,-3,-3,-2,2,9
1541874463039852,-3,-3,-3,-2,0,-2,-5,-8
1541874463039852,1,1,0,-1,-1,1,-2,2
1541874463060872,-1,-1,-1,-1,-1,-1,1,4
1541874463060872,-4,0,-2,-1,0,-1,-1,-3
1541874463062886,-2,-1,-1,-2,-1,-1,0,-5
1541874463062886,2,0,1,1,0,1,3,4
1541874463074900,-1,-3,-1,0,-1,0,0,-4
1541874463074900,-2,-2,-2,-2,-2,0,-1,-1
1541874463083907,6,3,0,0,0,-1,0,3
1541874463083907,-2,-3,0,-1,-2,-2,1,-3
1541874463097919,3,2,-1,-1,-2,0,0,9
1541874463097919,-2,-1,-1,0,-2,-2,1,-2
1541874463104924,-2,-2,-1,-1,-1,-1,-3,-4
1541874463104924,-1,-1,0,0,0,0,0,-2
1541874463120935,-1,-1,-1,0,-1,-2,-1,-4
1541874463120935,-5,-4,-2,-2,-1,-2,-5,-2
1541874463122937,1,1,2,-1,1,-1,1,-2
1541874463122937,1,-1,-1,0,-1,-2,-1,-2
1541874463134947,-2,-1,-1,-1,1,1,2,0
1541874463134947,0,-2,-1,0,1,0,-3,-2
1541874463143954,-2,-1,-2,-1,-3,-1,0,0
1541874463143954,-2,0,-1,-3,-1,-1,-1,-2
1541874463157965,-2,-1,0,-1,-1,-2,-1,-1
1541874463157965,5,1,1,0,2,0,0,1
1541874463164971,1,0,-1,-1,1,0,1,0
1541874463164971,-6,-2,-1,-1,-1,0,-3,-6
1541874463179982,-1,-1,-4,-1,-1,-3,-1,1
1541874463179982,-1,1,0,1,0,0,0,-1
1541874463180964,-1,-3,-2,0,-3,-2,-1,-2
1541874463180964,1,0,1,0,0,-1,1,2
1541874463203037,-1,1,2,0,0,1,2,-5
1541874463203037,-3,-3,-1,-3,-2,-2,0,2
1541874463204007,-2,1,-1,-2,0,0,-1,-4
1541874463204007,-2,0,-1,-1,0,-1,-2,-3
1541874463217012,2,0,-1,0,-1,-2,-1,-1
1541874463217012,-2,-2,0,-1,-1,2,-1,0
1541874463225018,-2,-3,-1,-1,-2,-1,-2,-2
1541874463225018,1,-1,0,-1,-1,-1,0,10
1541874463240029,-3,-1,0,-1,1,1,-3,-14
1541874463240029,-1,0,-1,-2,-1,-2,0,-3
1541874463241012,-1,-2,-2,-1,1,-1,-3,-1
1541874463241012,1,0,-1,-1,0,0,-2,-3
1541874463263032,1,-1,0,0,0,-2,-2,6
1541874463263032,-3,-1,-1,0,0,-1,0,-2
1541874463263032,-1,-6,1,-1,-2,0,-1,0
1541874463263032,0,1,8,2,0,-1,1,1
1541874463277042,1,0,-6,-3,-3,-2,0,5
1541874463277042,-2,-13,-4,-1,-2,-1,-1,0
1541874463285048,-3,-1,-5,-2,-1,-1,-2,2
1541874463285048,-2,-14,-7,-1,-2,-1,-1,-4
1541874463300113,0,0,-2,-2,-1,0,-1,-3
1541874463300113,-2,-6,0,0,-1,1,0,0
1541874463301075,5,17,2,-1,0,0,-3,2
1541874463301075,-3,-6,-9,-3,0,-1,-2,-5
1541874463323125,-2,-1,0,0,0,-1,0,3
1541874463323125,0,-3,-2,-1,1,0,0,-2
1541874463323125,-1,1,-3,0,-1,-1,-1,-3
1541874463323125,-3,-1,0,-1,1,-1,0,-1
1541874463338107,-1,0,4,0,0,0,1,1
1541874463338107,-1,6,-1,0,1,0,-1,0
1541874463338107,-3,-8,-2,0,-1,0,0,1
1541874463338107,0,3,-2,-1,0,1,0,1
1541874463360159,-2,-3,1,-1,-3,-2,0,-1
1541874463360159,1,5,1,-1,-1,-3,-2,-2
1541874463361121,3,-1,0,-2,-3,-2,-1,-3
1541874463361121,2,0,2,-2,-1,-1,-3,-3
1541874463383136,1,2,0,0,-2,-1,-1,-3
1541874463383136,3,2,0,-1,-1,-2,-2,-2
1541874463383136,1,-3,3,0,-1,-2,-1,-1
1541874463383136,1,4,0,-1,0,0,-2,-2
1541874463398148,0,-2,-1,-2,-1,-1,-2,-3
1541874463398148,1,0,0,-2,-1,-1,-1,0
1541874463398148,-1,-4,-3,-2,0,2,-1,-1
1541874463398148,0,2,0,0,-1,-1,-1,0
1541874463420155,0,-1,-1,0,1,-1,-2,0
1541874463420155,-2,0,-1,0,-1,-1,-1,0
1541874463421163,-1,0,-1,-1,-2,-1,-1,-1
1541874463421163,-1,1,-1,-1,-1,-2,0,0
1541874463443185,0,-1,0,0,-1,-1,0,0
1541874463443185,0,1,-1,-2,-1,-3,0,-1
1541874463443185,-4,-2,-1,0,1,-1,-1,-1
1541874463443185,0,-2,-1,-2,0,-2,0,-2
1541874463458187,-1,-2,-1,0,-1,1,0,-2
1541874463458187,0,-1,-1,-1,-1,-1,0,-1
1541874463458187,0,-1,-1,0,-2,-2,0,0
1541874463458187,0,-2,-2,0,0,-1,0,-2
1541874463480254,-1,-2,-1,0,1,1,-1,1
1541874463480254,-2,-1,0,-1,-1,-1,0,-2
1541874463481237,-2,-2,-1,-1,-1,1,0,1
1541874463481237,-2,-1,-2,-1,-2,1,0,0
1541874463503216,-2,-2,0,-4,0,-1,-1,1
1541874463503216,-2,-2,-2,0,-1,0,0,0
1541874463503216,-1,-1,0,0,0,-2,0,-1
1541874463503216,-2,-2,-2,-1,-1,-1,1,0
1541874463517247,-1,0,0,0,-1,-2,0,0
1541874463517247,-1,0,-2,-1,0,0,-1,1
1541874463525253,-1,0,-1,-1,1,-2,-2,1
1541874463525253,-1,-1,-1,-1,-1,-1,-1,0
1541874463548271,-1,0,-1,-1,-1,-1,-1,-1
1541874463548271,-2,-2,-1,-1,0,0,-2,-1
1541874463549272,-1,-1,-2,-1,-1,0,0,-1
1541874463549272,-1,0,-1,-1,0,-1,-1,-1
1541874463562283,-1,1,-2,0,-1,-1,-1,0
1541874463562283,0,0,-1,1,-1,-1,0,-1
1541874463563268,-3,-1,0,1,-1,-1,-1,-1
1541874463563268,0,-1,0,-1,-1,-2,-1,0
1541874463577294,-1,-2,0,-1,-1,1,0,0
1541874463577294,-1,-1,0,-1,1,0,0,-3
1541874463578292,-1,-1,0,-1,-1,0,0,-2
1541874463578292,-1,0,0,1,-1,0,-1,0
1541874463600312,-1,-2,-2,0,-1,-2,0,-1
1541874463600312,0,0,0,-2,-1,0,-1,-1
1541874463601314,0,-2,0,-1,-3,-1,-1,0
1541874463601314,-2,0,0,0,-2,-2,0,-1
1541874463622330,0,0,0,0,-3,0,-2,-2
1541874463622330,0,-1,-1,0,-1,-1,-1,-1
1541874463623321,-1,-1,-1,-1,-1,-1,-2,-1
1541874463623321,-1,0,0,-1,0,0,-2,-3
1541874463637341,0,-1,0,0,-1,-1,-1,0
1541874463637341,-2,-1,-1,-1,-2,-3,-1,0
1541874463638322,0,-2,-1,-1,-1,0,0,0
1541874463638322,0,0,-1,-2,-1,-2,-1,-2
1541874463660396,1,-1,-1,-2,0,-1,0,-1
1541874463660396,-1,-2,-1,-1,-1,-1,-2,-1
1541874463661395,-1,0,0,-1,0,-1,-1,0
1541874463661395,-1,-2,0,-1,-1,0,-1,-1
1541874463682413,-1,-1,0,0,0,0,-2,-2
1541874463682413,0,-4,1,0,-1,0,1,0
1541874463683360,2,0,-3,-2,-2,0,-2,-3
1541874463683360,0,-1,0,-1,-1,-2,-1,0
1541874463697372,0,2,0,1,-2,-1,-3,-2
1541874463697372,1,-1,-1,-1,0,0,-2,0
1541874463698371,0,-1,-1,-1,-1,0,1,-1
1541874463698371,-1,-1,-1,-2,-1,0,0,1
1541874463720443,-2,-1,-2,-1,-2,-1,0,-2
1541874463720443,-2,1,-1,-1,-2,0,1,-2
1541874463721443,0,0,1,-1,-2,-1,0,0
1541874463721443,-1,1,0,-2,-1,-2,-1,0
1541874463743461,-1,0,0,-1,-1,-1,0,-2
1541874463743461,-1,1,0,0,0,-2,-2,0
1541874463750430,-1,-1,-1,-1,0,-1,-1,-1
1541874463750430,-1,-1,-2,0,-2,-1,0,-1
1541874463757435,-1,-2,-1,-1,-1,0,-1,-1
1541874463757435,-1,-1,0,-1,-1,-1,-1,0
1541874463758419,-1,0,-1,0,-1,-2,-1,-1
1541874463758419,1,1,0,-1,-1,0,-2,-3
1541874463780489,-1,-1,-2,0,0,-3,-2,0
1541874463780489,0,0,0,-1,-1,-2,-1,-2
1541874463781492,0,0,-1,-1,0,-1,-1,-2
1541874463781492,-1,0,-1,0,-1,0,-1,-2
1541874463802452,1,0,-1,0,-3,1,-1,-1
1541874463802452,-1,1,0,0,2,0,-1,-1
1541874463803453,1,0,0,2,1,1,-1,-1
1541874463803453,-2,-1,-2,-1,1,-2,-1,-1
1541874463817518,-2,-1,-1,-1,-1,0,-1,0
1541874463817518,-2,-1,-3,-2,-2,-2,-1,-1
1541874463818465,0,-2,-1,-1,-2,-1,-1,-1
1541874463818465,-1,-2,-1,-1,-2,-1,-2,0
1541874463840482,-1,0,-1,-1,-1,-2,1,-1
1541874463840482,0,0,-1,-2,-2,0,0,0
1541874463840482,-2,-2,-2,-1,0,-1,-1,-1
1541874463840482,-1,-1,0,0,-2,-2,0,1
1541874463862555,1,-2,-1,-3,1,0,-1,1
1541874463862555,-1,-1,-2,0,-1,-3,1,-1
1541874463863500,-1,-2,-2,-2,-2,-2,0,-1
1541874463863500,-2,-2,-2,1,-1,1,0,-2
1541874463877566,-1,-1,-2,-2,0,-1,0,0
1541874463877566,0,-1,-1,-1,0,-1,-2,-1
1541874463878514,-3,-1,-2,1,0,-1,-1,0
1541874463878514,-2,1,0,-1,-1,0,-2,0
1541874463908591,-2,0,-2,0,-1,0,-2,0
1541874463908591,0,0,-1,-1,-1,0,-1,0
1541874463909568,0,-1,1,-3,-1,-1,2,-1
1541874463909568,-1,-3,-1,0,0,0,-1,-1
1541874463922604,-1,0,1,-1,-1,1,0,0
1541874463922604,1,0,-1,0,0,1,-1,-1
1541874463923549,-3,-1,0,-1,-1,-1,-2,-1
1541874463923549,-1,0,-1,-3,-1,1,1,0
1541874463937588,-1,0,0,-1,0,-1,-1,-1
1541874463937588,-1,-4,-1,-1,-2,1,1,-1
1541874463945623,0,-1,0,-1,-3,-1,-1,-1
1541874463945623,0,0,0,0,-3,0,1,-1
1541874463960595,-1,0,-1,-1,-1,-1,1,-3
1541874463960595,-2,0,0,-3,0,-1,0,-1
1541874463960595,0,-1,0,0,1,1,-1,0
1541874463960595,0,-2,-1,0,0,0,-2,0
1541874463983613,-1,0,-2,-1,0,0,1,0
1541874463983613,-2,-1,-1,0,-1,1,-1,1
1541874463984615,-1,0,-3,-2,-2,1,0,1
1541874463984615,-1,-1,-2,-1,-1,-1,-1,0
1541874463996619,0,1,-1,-2,-1,-2,0,-1
1541874463996619,1,0,1,0,-2,-3,-2,-2
1541874464005614,1,2,0,-1,-2,-2,-1,-1
1541874464005614,2,1,1,-1,0,-3,-2,-3
1541874464020678,1,-1,-1,-1,-2,-1,-2,-1
1541874464020678,1,0,-3,0,-2,-2,-1,-2
1541874464021628,3,0,0,1,0,-3,-2,-3
1541874464021628,2,2,1,-1,0,-3,-2,-3
1541874464043696,0,0,0,0,-1,-2,-2,-1
1541874464043696,-1,0,-2,-1,-1,1,-1,-1
1541874464044644,-1,-2,-1,-1,-1,0,-1,-1
1541874464044644,0,-2,-1,-1,-1,0,0,-1
1541874464056671,-1,-1,-1,0,-1,0,-1,0
1541874464056671,-1,-2,1,-2,-2,0,-2,-1
1541874464065661,-1,-1,-1,0,0,-1,-2,0
1541874464065661,-1,2,-1,-1,-1,-1,0,-2
1541874464080670,-1,-1,-1,-1,0,0,0,-1
1541874464080670,0,-1,0,-1,1,-1,-2,-1
1541874464080670,-2,-3,-2,-1,-2,-1,0,-1
1541874464080670,-1,-1,-1,-2,-2,-1,0,1
1541874464103691,0,-2,-1,-2,-1,-2,-1,-1
1541874464103691,-2,-1,-1,-2,-1,0,1,1
1541874464104704,0,1,-2,-3,0,0,-1,-1
1541874464104704,-2,-3,-1,-1,0,1,-1,0
1541874464116753,-1,-1,-1,1,-2,2,-1,1
1541874464116753,-1,-2,0,0,-1,0,-2,1
1541874464125757,0,-1,-1,0,-1,-1,0,-1
1541874464125757,-1,-1,0,1,-2,-1,0,0
1541874464139717,1,0,1,0,0,0,0,-1
1541874464139717,-2,-1,0,0,0,1,-2,0
1541874464140718,-2,-2,-1,0,-1,-1,0,0
1541874464140718,-1,-2,-3,-2,0,-2,-1,0
1541874464163739,-2,-1,-1,0,-1,0,-1,0
1541874464163739,-2,-1,-2,0,1,-1,0,2
1541874464164736,-2,-1,-2,0,0,-1,1,-1
1541874464164736,0,-1,-1,-1,-1,-1,-1,0
1541874464176801,-1,-1,-2,-1,-1,-3,-1,-2
1541874464176801,-1,-2,-1,0,-1,0,0,0
1541874464185780,-1,0,-1,-2,-2,0,-1,0
1541874464185780,-1,-1,-1,0,0,1,-1,0
1541874464199784,-1,-1,-1,-2,-1,-1,-1,-1
1541874464199784,2,0,-2,0,-1,-1,0,0
1541874464200766,0,-2,-1,-2,1,-1,-1,-1
1541874464200766,-1,-1,-1,0,1,0,1,1
1541874464223802,-2,-1,-2,-1,-1,-1,0,0
1541874464223802,-1,-1,0,0,0,-1,-1,-1
1541874464223802,-2,-1,0,0,-2,0,-1,0
1541874464223802,0,0,0,-2,-1,-2,-1,0
1541874464245819,-3,-2,-1,0,-2,-1,0,-1
1541874464245819,0,-1,-2,-1,-4,-2,-1,-1
1541874464246802,-2,0,0,0,0,-1,-1,0
1541874464246802,0,0,-2,-2,-2,0,-1,-1
1541874464259812,-1,-1,1,-1,-1,-2,0,0
1541874464259812,-1,-1,-1,-1,-1,-1,0,-2
1541874464260818,-2,-1,-1,0,0,-1,-2,-1
1541874464260818,-2,-1,0,-2,-1,0,-1,-1
1541874464283850,2,-1,0,-2,0,0,-1,-1
1541874464283850,-1,0,-2,-1,-1,0,0,-3
1541874464283850,0,-3,-1,0,-2,-1,-2,-2
1541874464283850,-1,-1,-1,0,-2,0,-1,1
1541874464305862,-2,0,-2,-1,-2,-2,-2,-4
1541874464305862,-1,-4,0,-2,-1,-4,-2,4
1541874464306848,2,1,1,1,2,2,0,-2
1541874464306848,-4,-4,-4,-2,-4,-6,-6,-10
1541874464319914,5,3,-2,1,0,1,0,1
1541874464319914,1,0,-2,-1,-1,-2,-1,1
1541874464320862,-3,-2,0,0,-1,-2,-1,0
1541874464320862,-4,-2,-1,-2,0,-1,-3,-7
1541874464343883,-2,-1,-1,-2,0,-1,1,-2
1541874464343883,-3,-2,0,0,-1,-1,-4,-4
1541874464343883,-2,-4,-3,-2,-3,-5,-6,0
1541874464343883,6,5,4,2,3,4,6,0
1541874464365915,-3,-4,-2,-2,-2,-4,-5,-3
1541874464365915,-4,0,0,-3,0,0,-3,-7
1541874464366914,-2,-1,1,0,-1,-1,2,1
1541874464366914,-4,-3,-2,-2,-3,-6,-4,2
1541874464379961,-1,0,1,-1,-1,0,2,1
1541874464379961,0,-1,-1,-1,0,-1,0,-3
1541874464380908,0,-2,0,-1,-1,-2,-1,1
1541874464380908,-2,-1,-2,0,-1,0,0,1
1541874464403955,-1,-1,0,1,1,1,1,0
1541874464403955,0,1,-1,0,0,0,1,-5
1541874464403955,-2,-1,-1,-1,0,0,-2,-5
1541874464403955,6,3,2,3,2,3,8,7
1541874464425961,-1,0,-3,-2,-1,-2,-6,0
1541874464425961,-2,-1,-2,1,-1,0,1,-1
1541874464426962,0,-1,-2,-3,-2,-4,-1,-3
1541874464426962,-3,-1,0,-1,-1,-1,-2,-1
1541874464439972,-2,-2,0,0,-2,1,2,-2
1541874464439972,0,0,-1,-1,0,1,0,4
1541874464440953,-1,0,-2,-2,-3,-1,0,2
1541874464440953,0,-2,-1,-1,-1,-1,-2,2
1541874464462973,-1,-1,0,-2,-1,-1,-1,1
1541874464462973,1,0,-1,-2,0,-1,2,-1
1541874464463971,-2,0,0,-1,1,0,-2,2
1541874464463971,-3,-2,0,-1,-1,0,0,-3
1541874464486044,0,-1,0,1,-2,-2,-3,-2
1541874464486044,-3,-2,-1,-1,-2,-1,-2,0
1541874464487046,0,1,0,0,0,1,1,-2
1541874464487046,-3,1,-2,0,-1,-2,-4,-8
1541874464500020,-1,0,0,2,2,1,3,3
1541874464500020,-1,-2,-2,-1,-2,-2,0,1
1541874464501001,0,-3,-2,1,0,0,-2,-4
1541874464501001,0,-1,-2,-2,-1,-1,0,0
1541874464523037,0,-2,-1,-2,-2,1,0,-1
1541874464523037,0,1,0,0,0,0,-2,0
1541874464524028,1,1,0,-2,0,-2,-1,2
1541874464524028,1,-1,3,1,1,0,-1,1
1541874464546059,-2,-3,-4,0,-1,-3,-2,-2
1541874464546059,2,0,0,0,-1,1,1,1
1541874464547056,-3,0,-2,0,-1,1,-1,-2
1541874464547056,-1,-3,-4,-3,-2,-2,-2,0
1541874464560069,1,1,2,2,1,1,2,-1
1541874464560069,-1,-1,0,-1,-3,-1,-2,-1
1541874464561058,0,-2,-1,-1,-1,-2,0,2
1541874464561058,-1,-1,-1,-1,-1,-2,-2,-1
1541874464583084,0,0,-2,-1,1,0,0,2
1541874464583084,0,-3,-1,0,0,1,0,2
1541874464584078,-2,-1,-2,0,-1,1,1,2
1541874464584078,-3,-1,-3,0,0,1,2,4
1541874464606102,-3,0,0,-3,-1,-1,-1,-1
1541874464606102,-3,0,0,0,-2,-4,0,-2
1541874464608099,2,-1,1,-2,-1,-4,-3,-4
1541874464608099,3,2,2,0,-2,-2,0,-1
1541874464628120,3,-2,0,-2,-1,-2,0,-3
1541874464628120,3,-1,-1,0,-2,-3,-2,-2
1541874464630113,3,2,1,1,0,-1,1,-2
1541874464630113,0,-2,-1,-2,-2,-3,-2,-4
1541874464643131,2,2,0,0,0,-1,-2,0
1541874464643131,0,0,-2,0,0,0,-2,-2
1541874464645124,1,-2,-1,-2,-1,1,-1,-1
1541874464645124,0,0,0,-1,0,0,0,1
1541874464666149,-1,-3,-1,-2,-2,0,-1,-2
1541874464666149,-1,0,-1,0,-1,0,-1,-1
1541874464667150,0,0,0,0,-1,0,2,0
1541874464667150,-2,-2,-1,0,-2,0,-1,0
1541874464680152,-1,-1,0,1,-2,-1,-2,-2
1541874464680152,-2,-1,-2,-1,1,0,-1,0
1541874464688151,-2,-2,-1,-1,0,-1,-1,-1
1541874464688151,-1,0,-1,-1,-1,0,-1,0
1541874464703162,-1,-1,0,0,0,0,1,-2
1541874464703162,-2,-2,-2,-2,-1,-2,-2,-1
1541874464705161,-1,-2,-3,1,-1,0,1,-1
1541874464705161,-1,-1,-1,-3,0,-2,-1,0
1541874464726199,-1,-1,-2,-3,-2,-1,-2,-1
1541874464726199,0,0,0,0,1,0,-1,0
1541874464727199,-1,0,1,-2,-3,0,0,-1
1541874464727199,-1,-1,-2,1,0,0,0,0
1541874464739207,-2,-1,0,-1,0,0,0,-3
1541874464739207,-1,1,-1,-2,-1,-1,-2,0
1541874464749196,-1,-1,-1,-2,-1,0,-1,0
1541874464749196,0,-1,-2,0,-1,0,0,-1
1541874464763226,-1,-1,-3,0,-1,-3,-1,1
1541874464763226,-2,-1,-1,0,1,-1,0,-2
1541874464765215,-1,0,-3,1,0,0,-3,-2
1541874464765215,0,-1,0,0,-1,1,-2,-1
1541874464786225,-2,0,-3,0,-1,0,1,6
1541874464786225,-3,0,0,-3,0,0,-7,-24
1541874464787226,-1,-1,1,0,0,0,4,2
1541874464787226,-10,-5,-4,-3,-2,0,4,8
1541874464799291,-18,-2,-1,-2,-2,-3,-25,-47
1541874464799291,-23,-1,-2,1,1,4,47,35
1541874464808297,23,4,-1,-1,-3,-4,-30,-10
1541874464808297,-12,-1,-1,-1,-1,0,11,-15
1541874464823270,5,-5,-3,-2,-2,-2,10,33
1541874464823270,3,2,-1,0,-1,1,-17,-10
1541874464825255,-16,-9,-3,-4,-4,-3,10,12
1541874464825255,11,1,0,1,-1,-1,-29,4
1541874464846286,1,0,0,-1,-1,1,2,-12
1541874464846286,9,1,-1,-2,-2,-5,-9,7
1541874464847284,-2,-3,0,1,0,1,6,16
1541874464847284,3,2,-1,1,0,-3,-4,-10
1541874464859285,0,-1,0,-1,-2,-3,3,2
1541874464859285,-7,-6,-3,-6,-3,-4,-11,-12
1541874464876311,-3,-1,0,1,-1,0,-5,-15
1541874464876311,5,5,3,-1,1,3,7,-17
1541874464883320,4,2,0,1,0,1,2,17
1541874464883320,-2,-8,-4,-3,-3,-3,-2,-4
1541874464885302,0,2,-1,-3,-3,-2,1,-4
1541874464885302,-7,-4,0,-1,-1,-1,-2,-4
1541874464906333,4,0,2,1,1,1,-1,5
1541874464906333,2,-1,-1,0,-1,-1,-6,-8
1541874464907320,-7,-3,-1,-2,-1,0,2,2
1541874464907320,8,10,3,4,4,6,14,19
1541874464928356,3,-3,-1,0,-1,-1,-3,-6
1541874464928356,-4,-4,-1,-2,-2,-2,-3,-18
1541874464930357,-2,-1,-1,3,1,0,-1,-8
1541874464930357,2,0,-2,-2,-1,-1,1,3
1541874464951374,-3,-1,-2,0,0,2,1,-2
1541874464951374,5,-3,-1,2,0,0,-2,7
1541874464952356,-1,3,0,0,1,2,6,7
1541874464952356,2,4,-2,0,-1,-3,-8,-2
1541874464966386,-7,-3,-4,-3,-1,-1,-1,-3
1541874464966386,-3,-1,1,0,-1,-1,-2,2
1541874464967373,-3,-9,-3,-1,0,0,2,0
1541874464967373,0,-6,-4,-4,-5,-5,0,5
1541874464979396,1,7,0,-1,0,-2,-1,-2
1541874464979396,1,3,4,6,1,4,4,-1
1541874464988397,6,1,1,1,3,3,4,1
1541874464988397,-5,-4,-3,-6,0,-1,-2,-4
1541874465003450,2,2,-2,-4,0,2,3,3
1541874465003450,7,6,10,7,-1,0,2,8
1541874465009401,-3,1,-3,2,-5,-4,-3,-4
1541874465009401,-3,-3,1,7,-3,-3,-3,-6
1541874465026416,2,0,1,0,1,2,3,7
1541874465026416,4,2,-4,-7,0,-1,-2,7
1541874465027414,-2,0,0,-5,-3,-1,3,-9
1541874465027414,-2,-5,-4,-7,-4,-1,12,6
1541874465039444,-1,-2,-1,-1,-1,4,-2,3
1541874465039444,-2,-1,-2,-3,0,-5,13,-9
1541874465048447,1,1,1,-1,1,-5,-22,-3
1541874465048447,2,-1,-3,-1,-1,-2,5,2
1541874465063442,-9,-7,-2,0,-4,-5,19,-16
1541874465063442,0,-2,-1,0,1,2,-29,0
1541874465071475,-1,1,1,-2,-2,-2,6,1
1541874465071475,-2,-2,-1,0,-2,-2,-7,-2
1541874465086492,0,-2,-1,1,0,2,-1,3
1541874465086492,1,0,-3,-1,0,-7,9,6
1541874465087463,-1,0,1,1,0,-4,0,0
1541874465087463,0,-1,-1,-4,0,0,-6,2
1541874465099490,-6,-4,-4,-3,-5,-8,-11,-16
1541874465099490,2,3,-2,-1,0,5,1,-9
1541874465108478,1,-1,-1,-1,1,3,3,9
1541874465108478,1,0,-1,1,0,-4,0,23
1541874465122492,-1,-1,1,-2,-1,2,-3,-1
1541874465122492,-7,-3,-1,-1,0,-1,-1,2
1541874465129509,-7,-4,1,0,1,-2,-7,-28
1541874465129509,2,-1,1,1,-1,3,-4,-10
1541874465146516,12,3,0,1,1,1,2,27
1541874465146516,7,1,-2,-1,0,2,7,41
1541874465147525,-16,-6,-2,-2,-4,-3,0,51
1541874465147525,-21,-11,-4,-1,-2,-2,-8,-88
1541874465159539,-5,1,1,1,1,-2,-10,4
1541874465159539,12,-1,-3,-3,-3,0,8,89
1541874465168536,16,6,1,3,1,6,15,39
1541874465168536,-9,2,-1,-1,-1,-2,-1,-9
1541874465182556,4,0,-1,3,1,-5,0,-9
1541874465182556,6,3,0,-1,1,0,-8,-20
1541874465189561,-31,-7,-2,-1,-2,-3,-9,-52
1541874465189561,6,-2,-1,-1,-4,-1,7,26
1541874465206568,14,3,1,1,1,4,8,27
1541874465206568,26,4,1,-1,2,3,10,105
1541874465207556,7,5,-2,-1,2,1,1,-73
1541874465207556,-74,-15,-3,-4,-8,-13,-38,-118
1541874465228591,-8,-4,3,1,-3,-5,-6,37
1541874465228591,32,3,0,1,-1,1,20,67
1541874465230577,13,2,0,-1,1,1,-1,-40
1541874465230577,19,5,-1,-1,2,1,8,76
1541874465251607,-9,0,-1,-1,0,0,-3,-59
1541874465251607,-9,-3,0,-2,-4,-4,-10,-4
1541874465252591,5,1,1,1,-2,-2,-6,0
1541874465252591,34,5,1,0,1,1,2,106
1541874465265620,-23,-5,-4,-3,-3,-4,3,-64
1541874465265620,-2,0,0,0,-1,-5,-1,-37
1541874465267614,3,1,-1,0,-2,-1,0,39
1541874465267614,1,4,4,1,-1,-2,-2,-28
1541874465295644,14,2,0,-4,0,-1,-1,38
1541874465295644,-21,-4,-2,-3,-2,-1,-6,-78
1541874465297627,0,-3,-4,-3,-2,0,1,15
1541874465297627,9,1,0,1,1,2,5,8
1541874465302649,5,1,0,2,0,-1,1,20
1541874465302649,-7,-4,-2,-1,-1,0,-5,-21
1541874465309655,-7,-2,-2,-2,1,-1,-5,21
1541874465309655,1,2,0,1,3,0,7,24
1541874465325668,-5,-2,-4,-4,-1,1,-5,19
1541874465325668,-10,-4,-2,-2,1,0,-1,-9
1541874465327661,-5,-2,-3,-2,-2,0,1,-35
1541874465327661,-4,-2,-2,-2,2,2,0,-53
1541874465348721,-5,-4,-2,-2,-1,-1,-2,-16
1541874465348721,-6,-1,-2,0,1,0,-1,17
1541874465350684,3,-1,-4,-2,0,2,3,23
1541874465350684,-1,-1,0,1,1,2,1,21
1541874465361696,-8,-2,-2,0,-1,-2,-5,-32
1541874465361696,-6,-3,-1,0,-1,-1,-3,-25
1541874465371685,-2,-1,-1,-1,-2,-2,0,11
1541874465371685,1,1,0,0,-1,-3,-3,0
1541874465385751,7,0,0,-1,-2,-1,6,30
1541874465385751,-7,-2,-1,0,-3,-4,-7,-30
1541874465387697,3,-2,2,-1,-3,-3,-2,0
1541874465387697,9,2,2,-1,-2,0,-1,1
1541874465415738,4,-1,-2,-1,-1,-2,-6,-2
1541874465415738,-2,0,0,-1,-2,-2,-4,-6
1541874465417731,9,0,1,0,-1,0,5,74
1541874465417731,-15,-5,-1,-2,-4,-2,-3,-71
1541874465447747,1,2,1,0,-2,-3,-9,0
1541874465447747,-5,-1,-1,-2,-1,0,-3,-26
1541874465448745,8,1,-1,0,0,0,1,41
1541874465448745,12,2,-2,-1,0,3,7,40
1541874465449746,-10,-1,-2,-2,1,-1,-3,-43
1541874465449746,-10,-2,0,0,-1,-3,-6,-48
1541874465461771,-4,0,0,-1,-1,0,-3,-21
1541874465461771,2,-1,-1,-1,-2,0,5,22
1541874465468814,3,0,-1,1,-1,1,3,23
1541874465468814,1,0,-1,-2,-3,0,0,13
1541874465482827,-5,-1,-2,-1,-2,-2,-1,-21
1541874465482827,2,0,-1,1,0,-2,-2,-4
1541874465483789,6,0,-1,0,-1,-1,1,21
1541874465483789,-2,-1,-1,-1,-1,0,2,-1
1541874465490797,2,1,0,0,3,1,1,-13
1541874465490797,4,4,1,2,3,3,7,25
1541874465506845,-2,-3,-2,-2,-3,-4,-1,-1
1541874465506845,2,2,4,3,3,2,6,6
1541874465511814,-3,-4,-2,-1,-2,-3,-9,-7
1541874465511814,-2,-1,-1,-1,1,-1,-2,6
1541874465528828,-3,-2,0,0,1,1,-2,0
1541874465528828,-3,-1,0,1,0,2,4,-1
1541874465529824,-8,-5,-2,-1,0,-1,1,-7
1541874465529824,9,5,1,1,1,4,7,9
1541874465541838,-2,-4,-4,-4,-2,-4,-5,4
1541874465541838,-6,-5,-5,-3,0,-1,-3,-1
1541874465558851,-2,0,-1,1,1,0,3,-11
1541874465558851,-7,-4,-2,-2,0,-1,1,-1
1541874465565857,3,2,1,0,3,4,7,1
1541874465565857,1,2,3,3,2,3,-1,-5
1541874465567858,7,5,1,1,1,4,7,15
1541874465567858,-1,0,-2,0,-1,-1,-6,-9
1541874465588875,-3,-3,0,-1,-1,-3,-2,0
1541874465588875,-7,-6,-3,-3,-2,-4,-3,-5
1541874465589864,-3,-1,-1,-4,-2,-3,-2,-6
1541874465589864,-1,-2,-3,-4,-2,-4,-5,6
1541874465610892,-1,1,-1,-1,-2,0,-1,-3
1541874465610892,2,-2,0,0,-2,-4,-4,0
1541874465612893,0,-2,-1,-1,-3,-3,-4,-4
1541874465612893,2,-1,-2,-1,-3,-3,-2,8
1541874465633910,-5,-1,-1,-1,-2,0,-3,-6
1541874465633910,2,3,0,0,-1,0,3,4
1541874465634892,-2,-2,-1,-2,-2,-1,-4,1
1541874465634892,-3,-4,-3,-3,-4,-3,-5,-1
1541874465655928,1,-2,-1,-3,-3,-2,1,2
1541874465655928,-1,-2,-2,-2,0,-1,0,4
1541874465657928,-1,0,0,0,0,-1,1,-4
1541874465657928,-2,-2,0,0,1,0,-1,0
1541874465661932,3,0,1,1,1,0,0,2
1541874465661932,1,2,0,-3,-2,0,0,3
1541874465670921,-3,-3,-1,-1,0,-2,-3,-4
1541874465670921,-1,-1,-3,-2,-1,-4,-3,1
1541874465685952,0,-1,-1,1,0,-1,1,7
1541874465685952,-2,-1,-4,-1,-2,-3,-3,-3
1541874465687952,0,0,0,0,-1,1,1,3
1541874465687952,0,-1,-1,1,0,-1,0,0
1541874465709005,-1,-1,1,0,-1,-2,-4,-3
1541874465709005,0,0,-2,-1,-1,-2,-1,-3
1541874465709966,-5,-2,-3,-1,-2,-1,-2,-3
1541874465709966,-2,0,-1,0,0,-1,1,4
1541874465730987,-3,-3,-3,0,-1,0,0,-2
1541874465730987,-2,-2,-2,0,-1,1,-1,1
1541874465732988,-1,0,-1,0,-1,-1,0,-1
1541874465732988,-2,-1,-2,0,0,0,1,-4
1541874465745998,-3,0,-1,-2,-1,0,1,1
1541874465745998,0,-1,0,-1,-1,0,0,1
1541874465748000,-2,-2,-2,-2,-1,-2,-5,-5
1541874465748000,2,0,2,0,-1,0,-2,-2
1541874465769013,6,1,-1,-1,-1,-2,4,5
1541874465769013,7,2,-1,-2,0,-1,2,47
1541874465769997,-28,-8,0,1,-3,-2,-8,-64
1541874465769997,2,-2,-1,-1,-1,1,-4,-14
1541874465782026,7,0,-1,-1,-1,-2,2,37
1541874465782026,5,-2,0,2,1,0,5,-20
1541874465791026,-10,-2,0,-2,-2,-3,-12,33
1541874465791026,-5,1,-1,11,1,-1,3,-53
1541874465806046,-1,-2,-3,-8,0,0,-1,-20
1541874465806046,16,2,-3,-1,-1,-1,4,90
1541874465808043,28,7,-1,0,0,3,8,88
1541874465808043,-46,-11,0,2,-2,-5,-12,-78
1541874465829073,13,2,2,2,-2,-1,4,40
1541874465829073,8,1,-2,-2,-2,0,4,7
1541874465830047,-11,2,2,3,0,0,-6,-22
1541874465830047,-26,-5,-2,-7,-2,0,-5,-75
1541874465842108,4,0,2,1,-1,0,4,39
1541874465842108,2,-4,1,-3,-2,0,-1,59
1541874465851071,26,5,0,6,1,1,7,51
1541874465851071,-11,-1,1,-11,-2,-3,-3,-42
1541874465866093,-6,-3,-2,1,0,-1,-4,-14
1541874465866093,6,1,-6,-2,1,-1,-1,16
1541874465868094,-10,-5,1,0,-3,-2,-5,-53
1541874465868094,9,1,-1,-15,-3,-1,-2,0
1541874465888145,-1,0,0,2,-1,0,1,2
1541874465888145,-3,-2,1,2,-1,-2,-7,-27
1541874465890101,-11,-5,-5,1,0,-2,-8,-60
1541874465890101,14,2,-1,3,0,-1,3,63
1541874465902120,-5,0,-2,-2,-1,-1,-1,-18
1541874465902120,-2,-1,1,-1,-1,-2,-5,-7
1541874465911110,-3,-3,-5,-7,-2,-2,3,4
1541874465911110,5,-3,-1,5,-3,0,-5,-11
1541874465925138,-3,-4,-3,-3,-1,-3,-5,1
1541874465925138,-9,-3,0,-1,-1,-3,-6,31
1541874465932144,-8,0,-1,-4,0,1,5,-76
1541874465932144,11,4,3,1,1,0,4,82
1541874465948157,-12,-4,-2,1,-1,0,-7,-71
1541874465948157,-10,-4,0,0,-1,-2,-2,-38
1541874465950149,11,0,-2,-2,-1,-1,3,45
1541874465950149,7,1,-3,1,1,1,1,32
1541874465962167,-3,0,3,0,1,0,-1,-13
1541874465962167,-7,0,-3,-1,0,-1,-2,-25
1541874465971169,4,1,-2,-2,1,0,1,21
1541874465971169,6,0,-2,2,0,0,3,39
1541874465985186,-13,-2,-2,-2,-3,-2,-4,-41
1541874465985186,-1,2,2,1,-3,-1,1,-31
1541874465992191,0,-1,1,0,-2,-1,-2,7
1541874465992191,2,-4,-1,0,-2,-3,-1,11
1541874466008239,0,-2,-3,-2,-1,0,-1,19
1541874466008239,-6,-4,-2,-1,-1,-1,-2,-24
1541874466010186,1,3,0,0,-1,-2,0,-7
1541874466010186,5,5,-1,1,0,3,3,19
1541874466022215,-1,-3,-4,0,0,0,0,10
1541874466022215,-7,0,-1,0,-2,-3,-1,-29
1541874466031213,6,-2,2,0,-3,-1,2,27
1541874466031213,8,5,-1,-1,0,-2,1,4
1541874466045232,3,11,4,3,-2,-3,-7,-5
1541874466045232,-4,-2,-1,0,1,-1,-3,-18
1541874466052239,-3,-5,-2,0,-1,0,-2,7
1541874466052239,1,-4,-1,-6,-1,2,4,9
1541874466068251,1,-3,1,0,0,1,5,24
1541874466068251,-1,4,0,-2,-2,-2,-6,-15
1541874466070234,-1,-5,-1,-2,1,2,-4,-53
1541874466070234,-9,-5,0,-7,-1,1,4,11
1541874466091297,-11,-4,-2,-3,-5,-7,-15,-34
1541874466091297,0,4,-2,-6,-2,0,4,22
1541874466092306,-9,-3,-3,1,-2,-2,-8,-3
1541874466092306,12,6,1,5,-2,2,8,1
1541874466105280,-12,-10,-4,-1,-1,0,-6,-10
1541874466105280,-3,-2,0,5,1,-2,0,4
1541874466112285,-3,-5,-3,-2,-2,-2,3,38
1541874466112285,4,-7,-4,0,-3,-3,-8,-33
1541874466128333,4,1,-1,0,-1,1,8,48
1541874466128333,1,-3,0,0,-1,0,-8,-75
1541874466130282,-3,5,0,-5,0,1,9,37
1541874466130282,-4,-4,-1,10,1,1,-5,-3
1541874466151298,9,5,0,-15,1,0,4,1
1541874466151298,0,-1,-3,0,-1,0,1,-5
1541874466152317,0,-1,1,1,1,0,-2,11
