timestamp,emg1,emg2,emg3,emg4,emg5,emg6,emg7,emg8
1541872381241620,2,1,-1,5,2,-1,-3,-1
1541872381241620,0,4,6,-12,-4,1,1,-1
1541872381242610,1,-2,-3,5,-3,-2,-5,-3
1541872381242610,0,-4,-2,2,0,2,2,3
1541872381243611,-2,1,3,-4,-3,2,-1,-3
1541872381243611,0,1,1,1,0,-7,-3,0
1541872381244617,1,0,0,-4,1,3,4,1
1541872381244617,-5,2,3,-12,-2,-2,8,-2
1541872381254622,-2,-4,-6,12,-1,-1,-10,0
1541872381254622,1,-5,-5,-5,1,2,6,0
1541872381271634,-1,-3,0,7,0,-3,-8,0
1541872381271634,1,-1,3,-3,2,-1,-2,0
1541872381272635,-8,0,3,-7,1,0,7,-3
1541872381272635,-1,2,0,4,-3,0,1,-1
1541872381285700,-2,-7,-2,1,-1,-2,-2,0
1541872381285700,2,1,-15,-3,-5,1,-5,1
1541872381293672,2,0,7,2,0,-3,0,-1
1541872381293672,-2,-1,-6,-26,-9,0,-2,-1
1541872381308674,-2,7,7,9,4,0,3,1
1541872381308674,-3,1,-7,2,-4,-2,-6,-6
1541872381316680,0,-2,-2,-7,-2,-1,-2,0
1541872381316680,0,-3,-5,13,2,0,-3,-6
1541872381329701,-1,1,-5,-13,-4,0,5,-1
1541872381329701,3,-2,4,-2,-2,0,-4,-1
1541872381371726,-1,-5,0,8,4,0,1,1
1541872381371726,2,2,-1,2,2,-3,0,0
1541872381372735,-1,-1,-2,-1,-1,-3,2,1
1541872381372735,1,-2,-7,-2,-2,2,3,-3
1541872381375733,2,-2,1,3,-1,-2,-12,2
1541872381375733,-2,-5,-9,-3,2,1,5,5
1541872381376720,3,-7,0,6,3,2,-1,-6
1541872381376720,3,7,2,-12,-5,-6,2,3
1541872381382727,-4,-2,-2,1,0,1,5,-4
1541872381382727,1,-4,1,5,1,-2,-4,-3
1541872381389784,-6,2,2,3,-3,0,0,1
1541872381389784,3,0,-3,-9,-1,1,-1,0
1541872381397794,-3,-3,-13,-37,-8,1,-1,-1
1541872381397794,-3,14,12,11,0,-3,-3,-1
1541872381412768,-2,-1,-19,1,-3,-1,-1,-1
1541872381412768,0,-1,4,13,1,-2,-3,-1
1541872381419774,4,20,23,13,0,-2,1,-1
1541872381419774,-4,-6,-32,-22,-4,-1,0,-4
1541872381443795,2,-2,5,-3,0,-1,-3,-2
1541872381443795,-3,2,-1,5,1,-2,-3,-1
1541872381444795,0,-3,0,2,1,0,0,-1
1541872381444795,0,-3,7,4,-3,0,2,2
1541872381457805,2,3,4,-3,-4,-1,8,-1
1541872381457805,-4,-5,-2,-11,-5,-2,-22,-2
1541872381458788,0,-1,-11,-1,0,-1,6,2
1541872381458788,0,-4,4,6,1,-1,1,-2
1541872381480825,1,-2,-8,-17,-2,-3,-8,1
1541872381480825,-2,2,2,9,4,3,8,-2
1541872381481829,1,-7,2,2,-3,0,-4,0
1541872381481829,-4,-4,-19,-3,-2,-3,-5,-4
1541872381503843,-6,1,14,9,4,3,1,6
1541872381503843,1,-3,-10,-14,3,1,2,-4
1541872381504844,11,0,13,16,3,1,-4,-3
1541872381504844,0,-2,2,-23,-4,2,2,-1
1541872381517838,-3,-2,-7,19,0,-1,-5,-4
1541872381517838,-2,0,16,-7,0,0,1,0
1541872381518837,0,-6,-4,2,1,1,2,2
1541872381518837,3,-5,6,4,0,0,-2,0
1541872381548881,4,1,0,-7,0,-2,-1,-1
1541872381548881,-2,-2,3,3,0,0,1,4
1541872381549881,-1,0,-10,-4,-3,-5,-2,-2
1541872381549881,-5,2,7,1,0,-1,0,0
1541872381563894,-8,-9,0,2,0,1,-3,-1
1541872381563894,0,-4,-3,5,-3,-1,2,-1
1541872381564894,-4,1,-4,-5,1,-3,-3,0
1541872381564894,1,-1,7,22,5,1,-2,-5
1541872381577904,2,-2,-7,-31,-5,0,1,2
1541872381577904,-1,-2,0,23,1,-1,-1,-3
1541872381578908,-1,3,-2,-8,-4,-4,-1,-2
1541872381578908,0,2,-5,-11,-3,2,1,2
1541872381600926,0,2,9,13,2,0,0,-4
1541872381600926,0,0,-7,6,2,0,-1,1
1541872381600926,-5,-11,-16,-26,-4,-4,0,0
1541872381600926,4,2,10,9,-1,-2,0,-1
1541872381623945,2,4,7,-8,-1,-1,0,0
1541872381623945,-2,-8,-11,-14,-3,0,0,-5
1541872381624945,-5,-1,8,15,3,0,-3,0
1541872381624945,-2,1,-2,-17,-4,0,-3,-1
1541872381637957,-3,3,0,-1,-2,0,-1,-1
1541872381637957,-4,-1,3,1,-1,1,0,1
1541872381638957,4,8,4,0,-1,1,-1,-1
1541872381638957,4,-1,-4,-4,1,1,-2,3
1541872381660973,0,-4,-2,6,-1,-3,-4,-1
1541872381660973,0,2,-5,-12,1,0,1,-1
1541872381660973,-1,0,7,37,-2,-2,-1,0
1541872381660973,-1,0,0,-18,0,4,-1,1
1541872381683992,0,0,-1,7,2,1,-2,-3
1541872381683992,-1,0,12,9,-3,1,1,3
1541872381684987,-1,-4,-11,-41,3,5,1,-2
1541872381684987,1,-1,14,41,0,-5,-2,-1
1541872381698003,-2,7,-12,-4,-5,-8,-3,-2
1541872381698003,-1,-1,-7,1,1,-6,-1,2
1541872381699004,-1,1,5,0,-4,-2,2,0
1541872381699004,-3,1,-2,0,1,10,0,1
1541872381721052,-1,-4,0,-2,3,2,0,-4
1541872381721052,0,15,0,-6,-3,-6,-1,-1
1541872381721052,-3,-1,12,8,-3,-5,-3,-3
1541872381721052,-3,-4,-7,-14,-7,-6,-1,-4
1541872381744024,-2,1,1,8,1,0,0,3
1541872381744024,1,-3,-2,-7,5,12,0,0
1541872381745026,3,1,7,2,-3,-1,1,3
1541872381745026,-1,4,-6,-1,-3,-7,-1,-1
1541872381757070,2,0,5,-13,1,-8,-1,-2
1541872381757070,1,-7,10,11,-6,2,-2,-1
1541872381766083,0,-3,-11,28,4,-9,2,-2
1541872381766083,3,-4,18,-34,-2,11,1,1
1541872381780072,3,-3,-9,-7,-3,-2,-1,0
1541872381780072,-3,2,-4,3,9,-2,-2,-2
1541872381781063,-3,2,10,7,-9,10,-1,2
1541872381781063,-2,1,-7,10,14,-8,1,-4
1541872381804091,-1,-2,7,2,1,5,-1,0
1541872381804091,0,-1,1,13,-3,-3,-3,1
1541872381804091,-1,-4,-12,-60,-7,2,-2,1
1541872381804091,2,3,1,-2,-9,-7,3,-1
1541872381817137,-1,-2,1,-3,-3,12,-3,0
1541872381817137,1,-3,-7,8,1,-12,0,0
1541872381826107,-1,0,-10,1,-1,5,5,0
1541872381826107,-2,0,1,0,-4,-4,-6,0
1541872381841118,0,-1,4,5,-2,9,3,-2
1541872381841118,0,1,6,-6,-2,7,0,1
1541872381841118,-5,-4,-7,-1,18,-1,-1,-2
1541872381841118,0,-4,-2,-7,-6,-8,-1,0
1541872381864141,-2,-1,-3,11,-5,-7,0,-1
1541872381864141,1,-4,-2,-3,-1,-7,0,-2
1541872381864141,0,2,4,0,1,-7,-1,-2
1541872381864141,-3,-5,-6,6,-3,4,-1,0
1541872381877152,-2,-1,0,-2,13,1,-3,0
1541872381877152,-1,3,-1,-7,-7,5,1,1
1541872381885158,-1,2,-2,-5,1,-5,-5,-3
1541872381885158,-3,-5,-4,17,2,3,-1,-3
1541872381900170,1,-3,-3,-22,-29,-7,4,-1
1541872381900170,4,0,-3,-7,7,-2,-2,-3
1541872381901151,-3,-3,1,12,5,-1,0,0
1541872381901151,4,3,2,-3,-13,-6,1,4
1541872381924190,-2,-1,-3,1,1,1,0,-1
1541872381924190,-7,-5,-2,0,1,4,-3,-6
1541872381924190,1,0,0,-4,-5,0,0,1
1541872381924190,1,1,1,2,7,2,0,2
1541872381937200,4,-1,-3,1,-2,-5,-2,0
1541872381937200,-3,1,-1,-4,-5,-6,0,9
1541872381945208,2,2,-1,2,0,1,1,-16
1541872381945208,2,-2,2,-1,2,5,-5,-1
1541872381960220,-2,2,-4,5,-4,-3,2,2
1541872381960220,-3,-7,1,-1,-4,-1,1,-2
1541872381961211,-4,-2,-2,-1,-3,-3,0,7
1541872381961211,3,-5,-5,0,-1,-5,-11,1
1541872381984231,-9,2,-3,-3,5,-3,6,-31
1541872381984231,6,-7,0,-2,-6,9,-8,6
1541872381984231,-1,6,2,2,12,1,-8,-10
1541872381984231,-5,-2,1,-2,-5,-3,7,5
1541872381997251,5,0,2,-1,2,8,-1,33
1541872381997251,-14,-3,-4,-8,-6,-9,-22,-4
1541872382005257,13,-5,-3,-3,-11,1,-2,20
1541872382005257,-7,1,-3,5,10,1,6,-4
1541872382020264,1,-1,-2,-3,-2,-6,-3,27
1541872382020264,6,1,0,1,-3,-2,23,-20
1541872382021251,-18,0,-1,0,-6,-9,4,28
1541872382021251,-1,0,0,-5,-9,-1,10,-4
1541872382044280,1,-3,-3,1,24,9,-17,-23
1541872382044280,3,3,1,-2,-7,-3,4,23
1541872382044280,-3,1,-2,-3,-1,-4,9,-13
1541872382044280,1,-1,2,-2,2,-1,3,6
1541872382057300,-8,-9,0,4,-5,-9,-8,-19
1541872382057300,9,-1,-6,-5,6,1,-4,9
1541872382065306,-1,-3,-2,-2,-6,3,-1,-26
1541872382065306,-10,1,1,-2,-8,-3,-3,1
1541872382080309,4,3,-3,-1,1,3,4,20
1541872382080309,-1,-4,-2,-3,5,-1,-7,-13
1541872382081312,-11,-5,0,4,-12,-2,-5,1
1541872382081312,10,0,-7,-5,1,-1,-11,-16
1541872382104358,-4,1,0,4,0,-3,6,5
1541872382104358,0,6,4,4,-3,1,8,-7
1541872382105358,2,0,-2,2,4,5,6,11
1541872382105358,0,1,-3,-2,-1,-3,-2,12
1541872382117350,-9,-2,1,-1,-8,-5,4,-4
1541872382117350,-7,0,-1,-3,9,5,-8,25
1541872382125357,4,-3,0,1,-4,0,-3,-30
1541872382125357,-1,5,-1,-1,5,3,3,2
1541872382140349,6,-1,0,1,-6,1,0,2
1541872382140349,-5,-2,-1,2,14,4,1,12
1541872382141350,42,1,2,0,2,1,-8,-25
1541872382141350,17,-3,-4,-2,-2,-5,-7,-14
1541872382163423,1,2,0,-3,-3,-7,3,-13
1541872382163423,-10,-2,-4,-3,-5,-2,4,-2
1541872382164383,-23,-1,2,-1,2,-4,-12,9
1541872382164383,-19,-2,1,2,0,3,-2,-10
1541872382186443,-15,8,6,4,5,0,4,22
1541872382186443,-9,-1,-3,-3,-9,-2,3,-16
1541872382187407,-10,-2,1,1,7,4,-8,-11
1541872382187407,-4,-3,-1,1,6,5,-6,3
1541872382200418,5,-4,-1,0,-4,-4,6,-6
1541872382200418,6,-1,-2,-1,-2,-8,-4,7
1541872382201410,7,0,1,-3,-10,-6,12,-2
1541872382201410,-13,-2,0,2,3,4,-9,-8
1541872382223432,6,-1,-4,-3,0,-1,1,-8
1541872382223432,7,1,-1,-2,-7,-1,1,-6
1541872382224420,0,-6,-3,1,4,4,-1,32
1541872382224420,21,9,0,-1,-4,-5,8,-27
1541872382253500,7,-3,3,-3,-4,-4,-5,-13
1541872382253500,21,-2,0,-3,0,-2,-4,-8
1541872382255445,-22,2,-3,-4,-9,0,-7,14
1541872382255445,-12,-3,2,-1,3,4,-1,24
1541872382260474,-6,-2,5,1,2,1,-2,-13
1541872382260474,-4,2,14,-1,-8,0,10,15
1541872382269475,2,-2,7,-1,-4,-18,-11,-22
1541872382269475,-14,-5,-4,1,8,2,2,0
1541872382283523,2,-5,-5,-2,-9,5,-1,22
1541872382283523,-4,-6,-3,3,7,1,-4,-12
1541872382285483,5,-1,-2,-4,-10,0,13,22
1541872382285483,1,0,0,4,-2,-3,-1,1
1541872382306488,-1,2,-10,-3,-4,-5,-9,10
1541872382306488,2,2,-10,-3,-9,3,1,-34
1541872382307501,-2,0,-5,2,8,5,0,4
1541872382307501,3,-5,3,0,-6,-6,-12,5
1541872382320512,0,-4,-2,-2,2,-1,-3,-12
1541872382320512,3,2,3,-1,-7,-3,-6,10
1541872382329521,6,-3,3,-3,0,0,1,10
1541872382329521,-10,-4,13,-2,-3,-1,8,1
1541872382342534,6,-4,24,-3,-2,1,-3,-2
1541872382342534,-4,-3,10,3,2,1,-4,19
1541872382351533,-1,3,2,2,13,4,3,-26
1541872382351533,3,4,6,-3,-6,-9,-1,-3
1541872382366555,-1,3,-10,1,0,-1,5,10
1541872382366555,-2,3,-9,-2,-3,-4,6,15
1541872382367551,1,-5,-18,-1,12,2,-5,-8
1541872382367551,4,1,-7,0,-10,-4,6,4
1541872382388573,-5,0,-4,-1,4,3,0,-9
1541872382388573,-2,-3,-3,-2,-6,-7,-6,-8
1541872382390559,2,5,10,-2,-2,4,-3,-7
1541872382390559,-8,-3,-24,-2,6,3,3,-21
1541872382402580,-3,12,-13,-1,-9,-1,-13,13
1541872382402580,4,-5,37,4,-1,-7,-6,13
1541872382411587,8,3,-3,-6,-4,-4,1,8
1541872382411587,5,-3,-12,-1,-13,5,-1,-25
1541872382425603,-4,4,-11,5,18,7,10,3
1541872382425603,-14,6,-38,-5,0,5,-2,-11
1541872382432592,-3,2,-48,4,-9,2,-9,-12
1541872382432592,3,2,16,-1,-5,12,-2,-4
1541872382448657,3,-2,-3,-3,0,23,-13,32
1541872382448657,-7,0,-16,1,7,40,3,-13
1541872382450619,1,-9,15,3,-2,58,12,18
1541872382450619,5,-16,12,1,14,51,-5,-6
1541872382462617,4,-20,9,-1,-3,7,12,-6
1541872382462617,0,-9,7,-1,0,-30,-3,-13
1541872382471636,-11,5,-2,1,-5,-52,-1,22
1541872382471636,-6,7,-15,-5,2,-53,-3,-9
1541872382485689,-3,13,5,0,-6,31,-3,-8
1541872382485689,5,40,10,2,21,109,0,5
1541872382492658,7,31,20,-3,9,127,5,-9
1541872382492658,13,26,21,0,10,124,10,46
1541872382508673,10,-12,12,15,25,116,7,-9
1541872382508673,5,-12,-5,-4,-10,-51,-14,-18
1541872382510674,-2,-24,-12,-10,0,-23,-8,8
1541872382510674,2,-11,-19,-12,6,-126,-3,-3
1541872382522720,-6,-5,-27,-15,14,-128,1,-14
1541872382522720,-2,-11,-12,-6,10,3,8,-3
1541872382531691,-3,-9,29,8,-1,-8,13,-7
1541872382531691,-4,-39,-2,2,7,-92,15,-1
1541872382545685,-18,-20,-23,-3,-10,-107,16,-23
1541872382545685,-5,-13,-2,17,-19,-128,-7,-7
1541872382552704,-8,-7,-22,3,-43,-128,-11,-9
1541872382552704,-3,1,-19,2,-12,0,3,10
1541872382568757,2,9,11,-6,28,70,72,45
1541872382568757,7,7,55,7,24,127,64,79
1541872382570706,10,10,33,4,39,127,17,11
1541872382570706,8,26,35,-4,29,108,-29,14
1541872382582733,6,15,5,-12,3,-20,-55,-26
1541872382582733,-8,9,-13,-26,13,-51,-47,-32
1541872382591721,0,8,6,-12,16,-54,-6,-39
1541872382591721,3,0,-6,-3,18,26,-31,-77
1541872382605734,0,5,-3,3,-5,25,-15,-9
1541872382605734,3,-15,-36,1,13,-21,-25,20
1541872382612739,1,-15,11,-3,32,-44,-33,22
1541872382612739,-8,-16,5,2,9,-77,-45,19
1541872382628751,-4,-12,5,3,-3,-10,-33,-29
1541872382628751,-7,-6,9,3,-27,-18,-9,11
1541872382630753,-14,-14,-13,-13,-21,-83,-14,-18
1541872382630753,-16,-6,-19,-1,-50,-46,-11,-19
1541872382642763,-17,-5,-7,9,-43,-30,-12,17
1541872382642763,-13,6,-13,-7,20,11,-3,-9
1541872382651770,-5,34,-17,7,-20,79,-7,-2
1541872382651770,-9,-1,-9,2,-68,23,-1,6
1541872382665837,-9,-5,-25,3,-97,-23,3,-12
1541872382665837,-2,-9,-48,-3,-78,55,16,-18
1541872382672798,7,-8,19,7,-68,27,17,13
1541872382672798,-4,-10,15,2,-89,16,24,27
1541872382688812,-7,-14,12,-7,-62,-8,0,-6
1541872382688812,-1,-7,-4,0,-57,-45,-7,-15
1541872382690822,-3,-7,-18,-2,-70,-48,-8,-32
1541872382690822,0,12,-9,3,-49,-17,8,-5
1541872382712823,10,6,-6,4,-29,-8,-8,-7
1541872382712823,4,9,12,7,8,-14,7,-18
1541872382714825,3,5,3,0,33,-32,16,-1
1541872382714825,5,8,-1,-3,68,17,28,10
1541872382725887,10,9,12,-2,105,46,17,-12
1541872382725887,8,4,16,2,87,47,20,-2
1541872382732852,8,-2,5,2,79,42,10,19
1541872382732852,5,1,1,1,80,36,11,9
1541872382748865,3,6,-1,-6,61,15,2,2
1541872382748865,-1,-1,7,-5,27,-1,2,-4
1541872382750891,-5,-3,6,-4,17,11,1,5
1541872382750891,1,0,-5,0,26,3,-1,3
1541872382771885,2,-6,6,2,11,6,-3,4
1541872382771885,-4,0,4,-2,-13,10,-2,5
1541872382772885,-5,-6,-9,-4,4,10,1,0
1541872382772885,3,-3,6,4,4,17,5,2
1541872382785936,0,8,9,-3,-6,10,-1,15
1541872382785936,3,-7,6,-3,-10,6,-4,-3
1541872382792906,2,0,3,3,-5,-3,-3,2
1541872382792906,1,6,1,-3,2,-11,0,-1
1541872382808920,2,-1,-2,0,-8,-6,-1,-10
1541872382808920,0,-2,7,1,-7,-16,-6,-14
1541872382810911,-2,1,-6,-1,-4,-10,-5,7
1541872382810911,1,-2,4,-4,-5,-9,6,67
1541872382830973,0,-3,-3,0,-3,-6,-5,46
1541872382830973,-6,0,-5,1,-4,-4,-5,24
1541872382832934,-3,-5,3,-5,-4,6,2,10
1541872382832934,-4,-4,-5,-1,-4,5,-2,-30
1541872382844986,-1,0,-5,2,3,5,-2,-15
1541872382844986,0,1,-1,-2,-11,5,2,-18
1541872382853936,0,-1,6,0,-5,1,-1,-20
1541872382853936,1,-1,1,-3,1,1,3,-16
1541872382868952,-5,4,-4,-2,-3,-2,0,-20
1541872382868952,-2,0,-7,-2,3,-2,-7,-18
1541872382870958,-6,-1,-1,-2,-3,-2,-2,-6
1541872382870958,-4,2,2,3,-1,-2,-3,-11
1541872382891025,-3,-4,7,-2,-1,-1,0,-9
1541872382891025,1,-1,-1,-2,-3,-2,1,-2
1541872382892970,-1,0,-4,-2,-3,1,-1,-1
1541872382892970,-1,1,-4,0,1,-1,-2,-2
1541872382905032,3,-3,1,-1,-1,0,-1,0
1541872382905032,-1,2,1,-4,-5,0,-3,6
1541872382913986,0,-5,-5,3,3,-1,-1,4
1541872382913986,1,6,-2,-2,-1,0,-1,2
1541872382930000,-6,-2,-10,-3,-3,-2,-4,2
1541872382930000,2,-2,-6,0,-1,-2,0,5
1541872382932001,-2,-5,-3,3,-3,1,-2,1
1541872382932001,-4,-2,-3,-1,-1,1,-1,1
1541872382951072,-1,-2,4,-1,3,1,0,-1
1541872382951072,-2,0,6,-2,1,-2,1,-3
1541872382953019,2,-1,0,1,-1,0,0,0
1541872382953019,0,1,-1,0,0,-1,0,-2
1541872382965048,-2,-1,-2,-1,1,-2,2,2
1541872382965048,-1,-1,-1,1,0,1,3,-3
1541872382974045,-1,2,3,-4,-2,-5,-3,-2
1541872382974045,-1,-5,-1,-3,-1,0,-1,-1
1541872382989067,0,1,0,3,-2,0,-1,-1
1541872382989067,1,0,-2,0,1,-3,-2,-1
1541872382990068,-2,-3,4,1,-2,1,2,2
1541872382990068,0,3,2,-1,-2,-3,-2,1
1541872383011123,-3,-2,0,-6,1,-1,-1,-2
1541872383011123,3,-1,1,0,-1,-2,-3,-1
1541872383013089,0,1,6,3,-1,1,0,2
1541872383013089,2,-2,-1,2,2,-2,0,-4
1541872383025086,2,3,-4,3,-3,-2,-1,1
1541872383025086,-2,-6,3,-5,-3,-2,-3,-1
1541872383034087,-2,0,-1,-3,-1,-3,0,1
1541872383034087,-1,-3,-1,-3,-2,0,2,0
1541872383049116,0,3,4,-6,-1,-4,-1,0
1541872383049116,-3,0,1,-2,-2,4,-1,3
1541872383050117,0,4,0,-3,-1,0,1,1
1541872383050117,-2,-3,-5,1,0,-3,-1,-5
1541872383071170,1,-1,-9,2,-2,-1,2,-1
1541872383071170,-1,-7,-5,3,-1,0,0,0
1541872383073133,-1,-1,-2,-6,-1,-2,-2,-2
1541872383073133,0,-2,1,0,0,1,-3,2
1541872383085146,-1,0,7,2,0,-2,0,-2
1541872383085146,-1,-2,-4,2,0,-2,-2,-1
1541872383094141,-1,-2,-4,0,2,1,0,-3
1541872383094141,0,4,4,-2,-1,-1,0,2
1541872383109166,4,0,-4,-1,-3,-1,-3,-2
1541872383109166,2,2,1,-1,0,-1,2,-1
1541872383110164,0,-1,-4,3,-1,-2,-1,2
1541872383110164,-3,-2,-5,-1,-2,-2,-1,-3
1541872383131221,-4,-1,4,-3,-4,-2,-5,-2
1541872383131221,0,4,14,3,-2,1,1,2
1541872383133182,1,0,4,0,2,-2,0,2
1541872383133182,-2,-5,5,-5,-3,1,1,0
1541872383145232,-1,0,1,-1,0,3,-2,1
1541872383145232,-1,-1,2,-3,-2,-3,-1,-1
1541872383154185,-2,3,6,0,-1,-1,-1,-2
1541872383154185,1,-2,-4,-2,3,2,0,-2
1541872383169199,5,5,1,-1,-2,0,-3,3
1541872383169199,0,0,1,-3,-3,-2,-1,0
1541872383170197,1,2,-1,0,0,1,1,-1
1541872383170197,-5,-2,3,-1,2,-1,-1,1
1541872383191269,0,2,4,-1,-2,-4,2,-4
1541872383191269,1,-2,-7,1,-1,-1,1,-8
1541872383193231,-1,-1,-2,-2,-1,-2,-3,0
1541872383193231,3,-2,-2,-1,-2,0,-3,-9
1541872383205236,-5,-6,-2,-2,0,1,3,-5
1541872383205236,-4,-1,-5,1,3,1,0,-7
1541872383214253,6,-5,-3,-8,-3,-7,1,-4
1541872383214253,-3,3,1,9,-1,1,-2,-1
1541872383229246,-1,-7,-12,9,3,-6,-1,2
1541872383229246,3,-4,12,-3,-1,-4,1,6
1541872383230247,-3,6,-3,4,0,2,-1,-1
1541872383230247,-2,1,-3,-4,-3,-5,3,17
1541872383251283,1,-2,-5,-3,-1,2,-1,7
1541872383251283,-8,-4,-6,4,1,2,0,11
1541872383253285,2,-4,1,9,2,0,2,8
1541872383253285,-1,0,19,-9,-4,-4,-12,-5
1541872383265285,2,-5,-15,-1,-1,1,4,1
1541872383265285,-2,-3,-19,-4,3,2,-2,-2
1541872383274303,-3,-2,51,1,-1,-5,-4,-7
1541872383274303,12,9,-3,9,-5,0,-1,-8
1541872383289315,-5,-8,5,-23,-1,-2,-3,17
1541872383289315,-6,-10,-19,2,-5,-5,-5,-13
1541872383291317,2,16,7,0,1,2,-1,3
1541872383291317,-9,-14,0,-11,0,-7,0,-1
1541872383311369,17,4,12,25,-2,-1,-2,-52
1541872383311369,14,17,-1,-12,1,7,10,-11
1541872383313335,-6,-24,2,11,1,2,-1,-23
1541872383313335,-17,-2,-16,-15,-2,-4,4,-1
1541872383325381,10,8,-52,-20,-2,-4,27,22
1541872383325381,-10,14,36,59,10,0,-26,17
1541872383334352,-4,-3,-29,-19,-2,0,-20,9
1541872383334352,8,-8,-30,13,0,2,-7,28
1541872383349364,-7,7,12,52,1,1,-24,16
1541872383349364,-9,-18,-20,-96,-10,-6,-20,17
1541872383350349,-4,21,5,21,2,1,-30,18
1541872383350349,23,13,5,35,5,10,-34,-1
1541872383371382,-24,5,-3,-34,-4,-3,19,20
1541872383371382,20,-12,1,24,0,6,50,22
1541872383373368,-25,0,-7,-3,-4,-1,49,-9
1541872383373368,-3,-14,-6,-42,-6,-4,44,-30
1541872383385430,0,1,16,-13,0,-2,11,-21
1541872383385430,3,9,3,6,2,2,5,-16
1541872383394402,14,1,-9,36,1,-3,-2,-16
1541872383394402,6,7,16,1,3,2,-4,-5
1541872383408414,-11,-1,4,-9,-5,-7,-22,-28
1541872383408414,2,-12,2,1,-4,1,9,2
1541872383415419,16,3,-2,-7,0,4,6,10
1541872383415419,-22,-18,-4,10,1,-1,10,-17
1541872383431428,23,30,9,6,-3,-1,-11,14
1541872383431428,-6,5,0,-5,-1,1,-23,-3
1541872383433430,-43,-31,-17,-14,-6,-5,-32,-11
1541872383433430,0,-19,3,-15,-3,-9,-19,2
1541872383445479,13,-12,11,-16,1,1,-14,-6
1541872383445479,-14,-6,-2,40,-2,-2,-1,-3
1541872383454451,10,-5,2,-30,-2,2,19,-5
1541872383454451,16,21,-5,-2,2,2,1,-4
1541872383468462,-18,-7,-4,17,0,5,5,-36
1541872383468462,20,-13,5,10,12,4,7,-4
1541872383475467,-5,19,-3,-9,-5,-3,2,1
1541872383475467,-13,-15,1,5,-6,-5,9,-19
1541872383491481,-3,-17,2,-4,-1,4,1,-10
1541872383491481,21,9,1,-12,-3,-7,-18,20
1541872383493464,-27,-20,-5,3,6,-3,-6,-35
1541872383493464,21,13,-6,2,-2,-4,-4,21
1541872383505496,12,22,4,8,13,3,-11,8
1541872383505496,-62,-43,-3,-6,-17,-3,-3,-4
1541872383514535,30,24,2,16,16,3,3,63
1541872383514535,3,-4,15,-1,-4,4,-4,-26
1541872383528547,8,-14,0,3,10,-1,-2,3
1541872383528547,2,-3,-1,-33,-18,-6,14,-39
1541872383535517,-19,-20,-4,-9,4,7,-1,4
1541872383535517,-9,8,-7,-10,-10,-8,-2,-22
1541872383551531,3,-5,-7,-2,-7,-6,6,51
1541872383551531,1,21,-1,-1,9,-6,-4,80
1541872383553528,27,9,14,3,-4,-10,-8,3
1541872383553528,-19,2,20,-10,-7,7,-7,-10
1541872383565582,13,6,26,34,14,18,-16,28
1541872383565582,7,-4,6,-11,-10,-2,-34,29
1541872383574549,-2,24,-13,-9,4,4,14,72
1541872383574549,-21,35,6,4,-6,8,73,70
1541872383587541,4,34,-11,9,8,8,50,-21
1541872383587541,19,0,-11,4,8,3,22,-39
1541872383596556,-8,-33,-30,-42,-15,-13,-33,7
1541872383596556,8,-24,-10,35,13,-13,-34,-40
1541872383611564,-8,-68,-6,-26,-22,-19,-3,2
1541872383611564,-3,-7,8,12,26,6,-28,22
1541872383613616,-3,-10,-1,-7,-16,-1,-11,-52
1541872383613616,1,-4,5,-3,1,4,6,54
1541872383633598,-8,-4,-3,-8,-11,-2,-10,-29
1541872383633598,14,30,-2,0,-9,-1,4,-5
1541872383635582,12,12,12,25,10,0,20,-48
1541872383635582,-13,13,-15,-23,1,4,0,78
1541872383648594,-8,-5,-1,18,4,-7,1,-8
1541872383648594,-16,-16,-4,-6,-7,-6,10,-40
1541872383655608,16,12,2,3,3,1,25,83
1541872383655608,28,-11,8,-4,-10,-7,18,-32
1541872383671625,-9,-3,-8,2,5,15,-13,-40
1541872383671625,-21,23,-4,0,8,-7,10,12
1541872383673613,8,3,9,9,-7,-8,2,-41
1541872383673613,0,-19,-5,-5,5,-19,-26,12
1541872383693684,-7,-24,-12,0,-3,-13,-18,11
1541872383693684,-2,-15,-39,7,-6,-10,-41,69
1541872383695645,21,-19,-65,-7,3,-1,-38,-55
1541872383695645,8,26,11,2,-2,-2,-30,41
1541872383707660,-25,6,26,-3,10,1,-6,-52
1541872383707660,11,14,32,-15,-19,0,14,31
1541872383716660,8,15,55,11,-6,8,21,-41
1541872383716660,-11,10,-13,9,12,9,13,10
1541872383731679,-5,-8,-1,-34,-14,16,9,-1
1541872383731679,0,2,-14,-5,1,8,17,11
1541872383732680,9,11,-28,10,0,8,7,26
1541872383732680,3,6,0,-3,-11,6,12,-51
1541872383753698,1,17,-2,13,9,-10,-1,127
1541872383753698,-13,-8,0,-5,-5,-2,-17,-128
1541872383755680,7,8,9,-14,-2,-6,-4,85
1541872383755680,-23,-24,6,2,-10,-11,-13,-39
1541872383767747,10,21,-3,-14,4,1,0,50
1541872383767747,15,15,4,19,22,5,5,35
1541872383776697,-10,3,11,-3,3,-2,-14,-47
1541872383776697,7,-8,-5,-1,0,-1,-6,-31
1541872383791764,11,-7,-17,-11,-5,1,0,15
1541872383791764,-9,13,-10,20,-1,4,17,-40
1541872383792764,-15,-15,8,-1,-6,0,10,-17
1541872383792764,23,18,-4,5,2,11,6,45
1541872383813747,31,-5,-4,3,-4,9,5,16
1541872383813747,14,6,11,-10,-2,9,3,-23
1541872383815730,-13,-10,-3,-7,6,0,-1,-17
1541872383815730,-18,-2,-12,-1,1,-7,-11,13
1541872383827794,1,10,-2,16,-3,-18,-20,-26
1541872383827794,-7,-7,6,-41,-6,-8,-11,10
1541872383836748,-28,-5,-7,10,-13,-9,-6,-41
1541872383836748,22,-13,-3,-3,12,2,-6,-39
1541872383851778,-86,-20,-3,1,-8,-26,-11,-38
1541872383851778,1,7,10,-25,-8,-12,-9,13
1541872383852775,26,4,-1,11,-5,-7,1,-34
1541872383852775,-39,-10,9,-35,-19,16,0,68
1541872383873796,27,13,9,6,2,14,24,-30
1541872383873796,-16,-37,-11,5,-5,12,8,-35
1541872383875798,44,0,6,-15,-13,7,19,80
1541872383875798,16,5,-2,29,21,2,2,-11
1541872383887788,-2,19,15,-17,3,10,7,-3
1541872383887788,-56,0,-2,17,0,3,-8,7
1541872383896798,5,18,1,-21,2,0,-12,93
1541872383896798,-23,-10,6,9,5,-2,-14,-107
1541872383911863,1,-5,2,2,-12,-32,-7,9
1541872383911863,22,-5,6,-27,25,-1,-13,-13
1541872383912810,-15,-1,4,13,-7,-10,2,12
1541872383912810,-8,-3,-7,-11,8,-11,-8,-58
1541872383933845,2,-1,-10,-8,-25,4,12,28
1541872383933845,58,4,1,-1,-1,2,11,-13
1541872383935848,-43,-27,-9,2,13,4,0,-45
1541872383935848,-2,2,1,1,-1,2,8,69
1541872383947893,-18,-30,3,-13,-2,1,-6,-15
1541872383947893,-14,12,-2,10,-12,-18,1,5
1541872383956856,-7,-15,4,-4,-4,-7,-2,19
1541872383956856,9,14,-2,4,-6,-3,1,-40
1541872383971877,30,17,-6,2,14,8,-8,13
1541872383971877,34,1,1,57,1,11,0,-18
1541872383972860,-37,-8,2,-81,-9,16,11,-10
1541872383972860,-21,-31,1,11,-2,-2,6,-57
1541872383993878,5,9,-1,-11,2,0,2,21
1541872383993878,-33,2,1,10,3,8,-3,18
1541872383995898,71,5,4,20,10,5,0,-16
1541872383995898,30,0,-4,0,-1,-10,5,49
1541872384007942,13,2,3,-6,0,-15,-6,14
1541872384007942,-16,-3,-2,-3,-25,-18,3,-77
1541872384016914,-24,-6,1,-26,4,10,1,-24
1541872384016914,-11,15,1,0,-1,9,0,-8
1541872384031924,18,-7,-6,-6,-3,4,-2,33
1541872384031924,20,29,4,2,0,-14,0,69
1541872384032908,21,-6,-9,10,2,0,1,-10
1541872384032908,-2,10,-1,-8,0,1,-20,66
1541872384053981,-31,4,3,19,7,18,1,-86
1541872384053981,72,-42,5,-19,-1,3,-1,58
1541872384055965,37,20,6,12,2,-6,-5,-1
1541872384055965,-31,2,-1,13,7,-14,-7,-63
1541872384067956,10,-20,-10,-15,-9,-5,-8,1
1541872384067956,-11,-1,-1,-23,0,-2,-1,14
1541872384076964,-2,6,-1,21,9,-4,-3,52
1541872384076964,7,-14,4,20,8,7,5,-31
1541872384091987,-23,10,2,-17,-8,-9,0,-44
1541872384091987,-34,14,-1,17,6,0,4,-26
1541872384092976,-31,1,-5,6,-15,-4,7,11
1541872384092976,5,7,1,7,-7,0,-3,22
1541872384113996,-44,-15,7,8,-10,-8,4,48
1541872384113996,-4,6,-7,1,-10,3,-10,-12
1541872384115998,-10,0,-1,-10,12,11,-7,-2
1541872384115998,-6,5,-11,-10,-14,10,-5,0
1541872384128009,22,9,0,10,9,-7,2,46
1541872384128009,-24,-23,-10,-22,-7,-10,22,0
1541872384136994,4,14,-5,20,-11,-21,5,-2
1541872384136994,10,26,-3,-34,-12,-10,-6,-21
1541872384152006,-4,3,-2,13,12,11,-13,-128
1541872384152006,34,30,2,-15,7,12,-2,14
1541872384153009,46,-3,1,33,-12,-4,-2,-21
1541872384153009,54,-21,2,-12,-1,-2,11,35
1541872384174079,18,9,6,21,6,9,6,39
1541872384174079,-8,-14,1,7,5,15,-8,4
1541872384176082,-19,1,1,18,-9,6,-12,-63
1541872384176082,45,14,2,-41,0,-8,-17,-43
1541872384196098,-26,0,-2,-5,-13,-20,-7,-43
1541872384196098,-51,-15,-3,-1,-1,-26,-9,-31
1541872384198059,-72,-32,-4,-11,-3,-14,-9,-11
1541872384198059,-60,-40,-5,30,22,-5,-1,10
1541872384211110,17,-9,-2,-43,-13,3,3,-10
1541872384211110,22,18,-2,3,1,-11,-1,15
1541872384218080,3,1,-1,-5,5,-2,-7,-11
1541872384218080,3,22,3,24,1,1,15,3
1541872384234094,32,9,2,-13,-2,5,8,-23
1541872384234094,12,-7,6,42,5,-5,1,25
1541872384236091,61,-6,1,-69,-10,-1,1,65
1541872384236091,-28,-24,1,9,-5,0,0,88
1541872384248105,-28,0,-9,29,3,10,0,-6
1541872384248105,-35,-9,-3,-5,-4,-16,1,-59
1541872384257103,-17,-2,-6,21,5,-3,-2,-75
1541872384257103,-2,5,-7,-4,-4,-1,-3,-19
1541872384271123,2,-16,4,-27,-11,-3,1,42
1541872384271123,41,-12,0,9,-7,11,2,14
1541872384273116,-13,-7,-3,1,0,3,-2,23
1541872384273116,11,-9,2,-5,3,11,5,30
1541872384294142,-11,16,-1,19,4,7,-2,29
1541872384294142,-19,-3,3,-7,-1,10,4,7
1541872384296138,-4,3,0,3,3,13,6,23
1541872384296138,-25,6,-2,-4,-5,5,2,-14
1541872384308151,-33,2,1,-3,5,-3,2,-42
1541872384308151,-17,10,-3,-8,-2,10,2,-55
1541872384317152,-19,-15,-3,26,11,0,-7,-1
1541872384317152,38,-10,-5,-46,-12,-6,-5,-35
1541872384331168,28,-10,-5,21,3,1,2,14
1541872384331168,34,4,-4,-16,6,-5,3,6
1541872384333156,-9,3,-3,8,-3,-3,0,-6
1541872384333156,-31,-5,2,5,0,-1,5,-12
1541872384354192,-67,5,7,-8,3,-4,-10,-25
1541872384354192,-13,-3,2,-3,-8,0,1,-18
1541872384355193,1,-11,-10,-5,-4,-3,-8,-6
1541872384355193,-27,-14,-6,1,-10,-1,-3,-6
1541872384368200,-5,2,-12,-6,-3,-3,-3,-77
1541872384368200,-21,-3,-9,1,-3,-1,-11,-47
1541872384376210,-21,-2,-1,-10,-7,-10,9,-26
1541872384376210,22,4,-3,4,6,3,-1,-73
1541872384391223,6,-4,-2,6,13,1,-12,1
1541872384391223,3,5,5,-9,1,6,7,46
1541872384397229,9,0,4,-1,1,3,5,41
1541872384397229,24,7,5,4,-2,-2,5,35
1541872384414241,24,2,7,2,-1,-3,7,43
1541872384414241,1,5,11,10,10,0,-4,18
1541872384415243,14,9,9,4,-5,8,-2,47
1541872384415243,8,0,3,6,3,-5,7,59
1541872384427252,34,-2,-4,-3,-2,0,-3,73
1541872384427252,17,5,0,-5,-6,-2,0,94
1541872384436241,-4,12,0,0,2,-4,-1,-11
1541872384436241,-12,3,6,0,2,1,-4,-39
1541872384450252,9,-1,2,-5,-5,-1,6,-37
1541872384450252,2,-11,-10,1,-2,0,-8,-19
1541872384458314,8,-6,-11,0,-2,-3,2,0
1541872384458314,3,-7,-6,1,-3,-1,4,54
1541872384473326,9,5,-1,-5,-1,-4,-14,48
1541872384473326,-15,2,6,4,0,-1,12,26
1541872384474291,-17,-1,4,-2,0,-5,-24,-15
1541872384474291,-23,11,1,-1,1,5,8,26
1541872384496341,-5,-2,-7,2,-2,-2,-3,21
1541872384496341,20,-2,-8,-3,-3,0,9,-48
1541872384496341,28,8,-9,0,5,-3,7,5
1541872384496341,14,9,2,0,-3,-3,-3,13
1541872384510356,5,-6,9,2,3,5,-4,-6
1541872384510356,8,-9,-3,-2,-1,-2,-6,-4
1541872384518328,-17,-4,-1,-1,-2,0,-4,-11
1541872384518328,-14,6,-7,-4,-8,-7,-6,-11
1541872384533340,-15,-9,-2,1,-1,0,11,5
1541872384533340,-45,4,2,-1,-5,8,-15,-5
1541872384534340,-31,0,0,-2,0,-5,2,-10
1541872384534340,-19,0,-3,-1,-3,-1,-1,8
1541872384556354,-2,-1,-5,-2,-1,-5,-4,-5
1541872384556354,15,1,-3,-3,-1,-4,9,-2
1541872384556354,30,10,-1,-3,2,7,-5,-16
1541872384556354,19,0,-6,1,3,0,-3,4
1541872384571363,18,2,-3,4,1,2,-8,-7
1541872384571363,13,2,-2,-2,-2,-1,9,-4
1541872384571363,2,-1,3,-2,0,2,12,25
1541872384571363,9,1,4,4,4,0,-13,19
1541872384593425,-3,-3,-3,-4,0,-4,23,-9
1541872384593425,5,1,-1,-2,-4,-3,-13,7
1541872384600395,-8,3,2,-2,2,2,-4,-1
1541872384600395,-5,-4,2,1,-2,-3,-2,-15
1541872384615407,-2,-1,1,-3,0,-4,3,0
1541872384615407,-2,4,-4,1,-3,-1,-9,5
1541872384616390,0,-5,-4,-5,-2,-2,4,-4
1541872384616390,1,1,2,1,2,0,-1,-1
1541872384631417,1,-6,3,1,1,0,-3,-5
1541872384631417,-8,-3,5,2,0,-2,2,-6
1541872384631417,3,1,4,2,-1,-2,-4,-6
1541872384631417,1,-5,-2,2,5,5,1,-11
1541872384653422,0,2,3,-3,-4,-4,-5,2
1541872384653422,-1,-4,1,-5,1,0,-2,-6
1541872384654475,-1,1,-3,-3,-1,0,1,-7
1541872384654475,0,-6,2,-3,-3,-2,-3,-3
1541872384675457,-3,1,-2,-1,-2,0,13,8
1541872384675457,1,1,2,3,2,1,-12,8
1541872384676439,-1,1,4,-1,-4,-2,-1,-7
1541872384676439,-1,-3,-4,-2,0,0,0,-2
1541872384690471,1,-7,-4,-1,-2,-1,-5,1
1541872384690471,-4,1,-4,-5,2,1,2,-3
1541872384691451,-6,-1,3,3,-3,-4,-2,-1
1541872384691451,0,-3,-8,-3,0,-1,-3,-4
1541872384713489,3,3,0,2,-1,-1,-3,-5
1541872384713489,2,-3,2,2,-1,-1,3,-3
1541872384714491,3,-3,-4,-6,-3,1,-5,-4
1541872384714491,-2,1,0,-2,0,-5,6,-4
1541872384735506,6,2,-1,2,0,4,-7,0
1541872384735506,2,-4,-5,0,-1,-1,-2,-4
1541872384736487,-3,1,-2,-2,-3,-4,3,2
1541872384736487,-11,2,3,1,-4,-1,-7,-1
1541872384750520,-14,0,2,-1,-1,0,4,-1
1541872384750520,-2,-4,-1,0,0,0,-6,-6
1541872384751506,5,-1,-4,4,2,-4,-3,0
1541872384751506,6,3,-2,1,0,0,3,3
1541872384773537,1,-5,-2,0,1,3,4,-14
1541872384773537,6,0,-1,-3,-2,-3,-6,3
1541872384774519,-6,1,4,2,2,0,8,-3
1541872384774519,3,-1,1,0,-1,-5,-11,1
1541872384796592,1,2,3,-5,3,-2,-11,-5
1541872384796592,-5,-5,-2,-2,-3,3,10,-2
1541872384797543,10,-6,-1,-1,0,1,-10,-1
1541872384797543,2,4,0,1,1,1,8,-3
1541872384810568,0,0,-3,0,0,-2,-3,4
1541872384810568,-3,-3,2,1,-1,-3,-3,0
1541872384811549,-2,-2,0,-4,-3,-1,4,1
1541872384811549,-2,3,-4,-2,-8,-2,-8,-4
1541872384833587,0,3,-1,-3,-3,0,3,1
1541872384833587,2,4,-1,2,0,1,4,-2
1541872384834588,-1,-3,-1,-1,-2,-1,-6,-2
1541872384834588,0,0,2,1,0,0,3,-9
1541872384855605,-3,-4,0,-1,-1,-1,3,-1
1541872384855605,-4,2,-2,-1,0,1,0,3
1541872384856587,0,-2,-4,-4,-2,-1,-2,2
1541872384856587,-1,2,1,-4,-2,-1,-3,1
1541872384870613,-4,0,-3,-1,0,-1,-2,2
1541872384870613,-4,-2,0,-3,0,-2,0,-2
1541872384871600,0,3,3,2,0,2,0,-4
1541872384871600,0,0,0,-1,5,-1,1,1
1541872384893673,2,-2,-2,-7,3,-2,-8,0
1541872384893673,-2,1,-3,-5,-1,-3,0,0
1541872384894672,-2,1,-5,2,-2,0,3,2
1541872384894672,-1,-4,0,-2,-7,-3,2,0
1541872384915654,2,2,-2,-1,-3,2,0,1
1541872384915654,0,-2,0,0,-1,-2,3,-2
1541872384916646,-4,1,-3,-3,-2,-4,-5,2
1541872384916646,-2,-4,-5,-2,0,2,-5,1
1541872384930667,-2,0,-1,3,0,-3,1,-5
1541872384930667,0,0,-1,-3,-4,-2,4,-1
1541872384931660,-2,6,-1,1,0,0,-1,-5
1541872384931660,13,0,-1,-2,-4,-1,-6,-2
1541872384953686,-6,2,-2,-2,-2,0,1,-5
1541872384953686,-4,0,0,-4,-4,-2,4,-1
1541872384954687,-3,2,-3,0,2,2,-1,1
1541872384954687,-7,1,1,-2,0,-1,4,0
1541872384975704,6,0,-1,4,-1,1,3,1
1541872384975704,-3,-1,0,3,2,-1,-7,0
1541872384976687,-1,-4,3,3,2,1,0,0
1541872384976687,-3,-1,-2,0,-3,1,1,-1
1541872384990717,-2,-1,-1,-1,-1,0,-1,0
1541872384990717,-3,-1,-5,-1,-1,-1,-3,-4
1541872384991717,1,3,-1,-4,1,-4,-2,-2
1541872384991717,-2,-2,1,0,0,-3,2,-3
1541872385013736,0,-4,3,2,-2,-2,-4,1
1541872385013736,10,-2,1,-2,2,-3,-4,-1
1541872385013736,1,-4,3,-2,2,3,12,2
1541872385013736,-1,-2,1,1,1,3,5,-4
1541872385035754,-3,3,5,0,1,-3,-14,7
1541872385035754,-8,-3,-2,1,1,0,-3,-5
1541872385036754,6,1,1,-2,-2,-4,-7,-4
1541872385036754,1,-4,-1,0,-1,0,-2,-3
1541872385050766,-2,-2,0,-3,-3,-1,3,-2
1541872385050766,-3,-1,9,1,-3,0,1,0
1541872385051767,-1,-9,5,-1,-3,2,0,-2
1541872385051767,0,-3,0,-1,-4,-1,-1,0
1541872385073786,0,1,-1,-1,-3,-5,-1,-4
1541872385073786,-2,-2,-2,-2,-1,0,-2,2
1541872385073786,-5,-3,0,-1,-3,0,-2,-2
1541872385073786,-1,1,-3,-2,-1,-1,-1,1
1541872385095839,-2,-2,-3,-1,-3,-3,-3,-2
1541872385095839,2,0,-2,0,1,-1,0,-2
1541872385096800,-2,1,-2,0,-1,0,-1,0
1541872385096800,-4,6,-3,-1,2,0,-1,3
1541872385110815,0,-2,-2,1,1,-2,-11,-2
1541872385110815,0,2,-8,-4,1,2,8,1
1541872385111798,-2,0,-9,-3,-1,0,-1,-1
1541872385111798,-4,-2,-14,-3,0,-1,2,0
1541872385133834,-1,-4,-1,-5,-4,1,-1,-4
1541872385133834,3,-1,8,-1,-1,0,-6,0
1541872385133834,-3,-1,3,-1,3,-2,-3,-2
1541872385133834,-2,0,4,-1,-2,-2,2,2
1541872385155853,-1,1,-12,-2,-1,0,-4,1
1541872385155853,-2,-3,-7,0,-2,-2,4,-2
1541872385156853,-8,-1,3,3,-1,0,1,-1
1541872385156853,3,0,7,-3,-1,-3,-4,1
1541872385169869,5,2,19,-1,1,1,7,0
1541872385169869,-1,-2,15,0,1,2,-5,2
1541872385178914,-4,-2,6,2,1,1,7,3
1541872385178914,0,4,-1,0,-1,0,-2,-3
1541872385193896,-3,1,5,2,0,0,0,1
1541872385193896,-2,-1,8,-3,-4,-2,8,0
1541872385193896,2,2,-6,-2,-2,-3,-13,-1
1541872385193896,1,-1,-9,-1,1,0,-11,-3
1541872385215901,2,-4,-12,-3,-3,-1,9,-11
1541872385215901,-1,1,-13,-1,-6,-1,-11,5
1541872385216904,4,1,-6,-6,1,-1,14,-6
1541872385216904,-9,-5,11,2,3,-1,-10,-7
1541872385229913,7,5,7,0,2,-3,-2,2
1541872385229913,-2,-4,8,0,-3,3,1,5
1541872385238914,-2,-2,7,-1,1,0,-9,-4
1541872385238914,-2,1,-18,-3,-2,-1,5,3
1541872385253930,-4,-2,-9,0,0,2,7,3
1541872385253930,1,-1,-41,-4,1,-3,-1,-8
1541872385253930,0,-6,-35,0,-3,-4,-11,-1
1541872385253930,1,-4,-25,-2,-1,-1,3,-3
1541872385275987,-4,-4,-10,-1,-4,-2,-2,-2
1541872385275987,1,-3,26,1,-1,0,7,0
1541872385276946,8,-3,45,2,-3,0,-7,5
1541872385276946,0,2,18,5,4,2,-3,4
1541872385289962,7,0,37,0,-1,2,0,4
1541872385289962,-5,-1,14,0,2,-2,0,-4
1541872385298956,3,7,5,-3,-2,-3,4,3
1541872385298956,1,-2,-11,-1,-3,2,-1,-17
1541872385313964,-3,0,-21,-3,-1,-1,-7,1
1541872385313964,-3,-1,-40,-3,-2,-2,-2,-5
1541872385313964,-6,-1,-35,1,1,2,0,-4
1541872385313964,2,2,-18,3,-3,-2,-5,5
1541872385337002,-4,-1,-28,-2,-1,-2,4,-3
1541872385337002,0,0,3,-3,-2,-1,-3,0
1541872385337002,-6,-1,10,0,-3,-2,1,0
1541872385337002,-1,0,13,0,0,2,-6,5
1541872385350012,2,4,14,-1,0,-2,2,-1
1541872385350012,-4,0,3,0,1,1,-10,4
1541872385358020,5,-1,-2,-1,1,0,11,-2
1541872385358020,-1,-4,15,-3,-4,-5,4,2
1541872385373069,-3,0,15,1,-2,0,-4,-2
1541872385373069,2,4,6,2,0,1,-3,1
1541872385374013,-2,1,2,2,-2,0,1,-1
1541872385374013,-2,4,10,1,1,-1,1,2
1541872385397053,-1,-2,1,-1,0,1,-4,2
1541872385397053,1,2,-26,1,-1,-5,1,-1
1541872385397053,-3,-6,5,0,-1,1,-4,-2
1541872385397053,2,-2,-3,1,0,2,7,2
1541872385410061,-3,-2,2,1,-2,-1,-2,2
1541872385410061,0,1,10,-1,-1,0,-2,-5
1541872385418059,-3,0,1,-1,-5,-2,0,-12
1541872385418059,-2,-1,-7,-3,3,0,-2,-1
1541872385433081,-4,-4,-9,-1,-1,1,0,-3
1541872385433081,1,2,3,-7,-4,-1,0,3
1541872385434063,-2,4,5,-2,-1,-5,-6,5
1541872385434063,-1,0,9,0,-4,-1,4,0
1541872385457103,-8,-8,2,0,1,1,3,-6
1541872385457103,12,-4,2,-1,0,-3,-4,-1
1541872385457103,-4,0,0,3,1,1,4,-7
1541872385457103,-1,-1,0,-3,-1,-3,-4,6
1541872385470147,1,2,-2,-2,2,-4,-9,-14
1541872385470147,-4,-1,4,2,-1,2,5,5
1541872385478155,5,-1,6,-1,-1,-3,5,1
1541872385478155,-4,-2,-2,-2,-4,-1,-3,-6
1541872385493111,2,2,10,2,0,0,-1,6
1541872385493111,-3,-2,18,1,2,-1,-1,0
1541872385494111,-1,-2,-2,-4,0,1,-3,4
1541872385494111,2,2,7,-1,-3,-2,5,0
1541872385516185,-3,-3,-17,-2,-7,-5,0,3
1541872385516185,-4,2,-14,0,2,-1,-5,-8
1541872385517185,-2,4,-13,-4,-2,0,-2,1
1541872385517185,-2,-7,-1,-2,-2,-4,0,-5
1541872385539169,-1,-2,4,-3,0,-2,1,0
1541872385539169,2,2,8,2,1,3,0,1
1541872385540169,0,1,8,0,0,1,1,1
1541872385540169,2,-10,4,2,3,3,-1,1
1541872385553180,0,-4,18,0,0,0,-7,2
1541872385553180,-4,-4,9,0,-6,-5,2,4
1541872385554162,2,1,8,-3,-3,-2,-7,-1
1541872385554162,-1,1,8,0,-2,-1,7,3
1541872385576200,6,1,-9,1,-1,-3,3,5
1541872385576200,0,1,-11,-2,-1,3,-11,-6
1541872385577181,-3,-2,-8,0,-1,-4,-2,3
1541872385577181,-3,-4,-9,-4,0,-1,-3,-1
1541872385599253,0,-2,5,-1,-4,-1,6,2
1541872385599253,-2,-7,1,-6,-1,1,0,0
1541872385600237,1,-1,3,0,-1,1,1,-1
1541872385600237,0,0,-3,0,-2,0,-2,-1
1541872385613230,-2,1,5,1,-1,0,0,-2
1541872385613230,-2,-7,-11,-1,0,0,-1,-2
1541872385614219,-3,-7,-11,1,-1,0,-2,-2
1541872385614219,2,2,-11,-7,-3,-2,3,-3
1541872385636248,-3,2,-6,-3,-2,0,2,-3
1541872385636248,-2,1,4,-2,0,-5,-7,1
1541872385637241,1,3,9,0,2,1,5,1
1541872385637241,-1,-5,13,1,-1,-4,-8,5
1541872385659268,0,-9,8,0,2,-1,3,6
1541872385659268,0,-6,0,-1,-3,3,11,-4
1541872385660268,-3,0,9,-1,-1,0,-6,1
1541872385660268,-1,6,6,0,0,0,0,0
1541872385673316,-5,4,-9,-2,0,6,-2,-6
1541872385673316,-3,0,-2,-1,-1,-10,-2,12
1541872385674261,-2,-2,-6,1,-4,0,2,0
1541872385674261,1,0,-9,-3,-1,1,-1,-4
1541872385696333,-6,-2,-10,-3,-1,-1,-4,-6
1541872385696333,1,5,-12,0,2,3,1,-3
1541872385697281,0,-3,-3,-4,-2,-3,-4,-3
1541872385697281,-3,-1,-1,-2,-4,-3,-2,-2
1541872385719318,1,1,-4,2,0,-1,-3,-1
1541872385719318,-5,0,-5,-1,-4,-2,3,-4
1541872385720317,0,-1,-4,0,5,-1,-3,0
1541872385720317,1,-2,0,0,0,1,1,-4
1541872385733329,1,4,2,2,0,9,-1,1
1541872385733329,-1,-3,10,0,-2,-9,2,-2
1541872385734330,1,0,2,-3,-5,-1,3,-1
1541872385734330,0,-1,5,3,1,4,0,0
1541872385756347,-1,-2,3,3,0,-11,-11,4
1541872385756347,0,1,-4,-5,-1,6,2,-4
1541872385757328,-1,-14,3,-5,0,-2,4,0
1541872385757328,0,-1,7,0,1,-1,7,-2
1541872385779349,0,-5,2,-3,-3,0,1,3
1541872385779349,1,5,2,3,0,-1,10,2
1541872385780402,-4,3,3,1,-2,-2,-17,3
1541872385780402,-1,3,-6,-3,-3,1,-2,-1
1541872385793377,-1,2,-14,-4,1,-1,2,-4
1541872385793377,1,-3,-4,-1,0,-2,-2,-5
1541872385794366,-1,3,-4,1,0,2,1,3
1541872385794366,-1,-3,-6,2,1,-2,-3,0
1541872385816397,-1,1,8,-1,-1,-4,-1,-5
1541872385816397,0,-4,2,2,-1,2,-5,-2
1541872385817379,-1,0,-4,-2,0,1,1,-4
1541872385817379,0,1,7,-2,-1,-4,-5,0
1541872385839416,-2,-1,2,-4,-1,0,4,-1
1541872385839416,-1,-4,8,0,1,1,3,1
1541872385840417,2,-1,5,0,0,5,-13,-4
1541872385840417,0,9,2,1,0,-13,5,-3
1541872385852426,-4,-4,-4,-3,0,4,-2,2
1541872385852426,0,-11,3,-1,-2,0,-4,-1
1541872385861434,-2,-2,-3,-2,0,0,5,0
1541872385861434,-1,-1,-6,-1,2,3,-5,7
1541872385876447,2,4,-3,0,-2,-6,-1,-2
1541872385876447,-6,5,-9,-1,2,-2,0,0
1541872385878429,2,3,5,-5,-4,-2,6,1
1541872385878429,-1,2,4,-2,-2,2,0,3
1541872385899447,0,2,1,1,1,-2,1,-6
1541872385899447,3,-2,2,-1,0,1,-2,-2
1541872385900454,-3,-5,1,1,-3,-1,4,-3
1541872385900454,0,-6,-2,-3,-2,-1,-2,-7
1541872385912512,-1,-4,4,1,1,-1,0,-3
1541872385912512,-1,-1,-3,0,0,-1,-1,-1
1541872385921527,0,0,-3,1,3,0,-3,-4
1541872385921527,-3,-3,-4,-3,0,0,0,0
1541872385936532,-1,-3,-5,1,0,2,4,-3
1541872385936532,1,0,8,1,-1,-1,-10,-3
1541872385938493,0,1,6,1,-1,-2,6,-7
1541872385938493,-2,-4,-3,-1,-3,1,2,-1
1541872385959516,2,-3,-3,-6,-1,-1,-3,-1
1541872385959516,-1,5,6,-4,0,-1,2,1
1541872385960507,-1,3,-7,-1,-3,-3,-3,-2
1541872385960507,0,-4,3,3,-2,0,3,-3
1541872385972525,2,2,-3,-2,-3,-3,-1,-8
1541872385972525,0,0,-9,0,-1,-1,-2,-11
1541872385981513,-1,4,-2,1,-2,-4,-1,-11
1541872385981513,-2,2,1,-1,2,2,3,-11
1541872385996548,1,-2,-4,1,-1,-2,0,6
1541872385996548,-1,-6,-7,1,0,1,-2,4
1541872385998550,-1,-8,-3,0,2,-1,-3,11
1541872385998550,0,-4,9,1,-4,-2,-2,14
1541872386019601,-2,-1,14,-2,-1,0,-1,9
1541872386019601,-1,5,-4,-2,-3,-1,1,12
1541872386020562,3,6,-5,0,1,0,-5,3
1541872386020562,0,3,-4,-1,1,-2,-8,-2
1541872386032610,-2,4,3,1,-2,-4,4,1
1541872386032610,0,0,11,1,1,4,2,5
1541872386041586,-2,-11,11,3,-3,-1,1,1
1541872386041586,0,-1,-6,-2,0,1,-10,1
1541872386056630,0,-6,-13,1,0,0,-9,4
1541872386056630,-2,-1,-7,-2,-4,-5,-6,0
1541872386058588,-3,-1,-2,-2,-3,1,-1,0
1541872386058588,-3,2,-4,-1,-1,2,15,-2
1541872386079597,1,-1,-6,2,-1,-3,-11,-3
1541872386079597,-2,0,-5,-2,0,-4,-4,-1
1541872386080596,-1,-3,1,-2,1,-4,-6,1
1541872386080596,2,2,-10,-1,-1,-4,-3,-3
1541872386092659,-2,4,-11,0,-1,-2,-4,-3
1541872386092659,1,-1,-6,0,-2,0,-9,-8
1541872386101615,0,4,5,-1,1,1,0,-6
1541872386101615,-3,-5,-3,-2,0,-1,0,-3
1541872386116679,0,-3,-6,-1,1,0,-5,-2
1541872386116679,-4,-2,2,-7,-1,-4,-5,-3
1541872386118636,0,-6,-4,2,1,-3,9,0
1541872386118636,-3,-2,6,-5,0,1,-2,1
1541872386139700,1,-1,3,-3,-1,2,8,3
1541872386139700,0,-1,7,1,-4,3,11,4
1541872386140645,-2,-6,-1,0,1,-2,5,0
1541872386140645,1,-2,5,0,0,3,-5,-1
1541872386152673,-3,-4,-1,-1,-1,0,1,-6
1541872386152673,-1,-4,10,-1,-1,0,10,4
1541872386161669,-2,-3,0,-1,-2,5,4,0
1541872386161669,0,4,2,4,-1,-1,-2,1
1541872386176695,0,9,8,0,1,-1,-2,2
1541872386176695,0,8,-3,2,-1,-1,-5,-2
1541872386178696,-1,-5,1,-2,0,2,4,0
1541872386178696,-3,-12,-2,-2,-2,0,-1,1
1541872386198712,-1,-8,-2,-5,0,7,0,-4
1541872386198712,-1,2,2,0,1,3,2,-2
1541872386200694,1,11,5,-3,0,4,-7,-1
1541872386200694,-1,6,-4,0,0,0,-1,-3
1541872386212724,1,0,-3,-3,-2,3,1,0
1541872386212724,-3,2,-1,0,-1,2,-4,-4
1541872386221721,-2,2,0,-4,-1,3,-4,-2
1541872386221721,-2,-2,1,-1,-4,-5,-5,-6
1541872386236743,1,-10,-7,3,-3,-6,-6,-2
1541872386236743,4,-9,-1,-1,2,-4,-11,2
1541872386238745,-6,-1,7,-5,-3,-5,-4,-1
1541872386238745,0,4,0,-1,2,-8,4,0
1541872386258762,-1,3,-5,2,-4,-13,-6,4
1541872386258762,-3,3,-2,1,-2,-11,-1,-2
1541872386265767,3,2,-3,-4,-4,-9,-2,1
1541872386265767,-1,2,1,3,0,2,-3,3
1541872386272773,-2,0,-1,-1,-1,-2,-1,-1
1541872386272773,-1,-3,-8,-1,0,-2,2,-3
1541872386281763,-2,-3,-2,-1,-3,-11,0,-1
1541872386281763,1,2,-2,3,-1,-11,-5,0
1541872386295827,1,5,-3,0,0,-6,-3,0
1541872386295827,-2,-2,-8,-2,-2,1,-3,-3
1541872386302797,0,-5,-3,-2,-1,-3,3,-1
1541872386302797,3,-8,-3,-3,-2,3,2,-1
1541872386318811,-1,-5,0,1,-1,2,5,0
1541872386318811,-1,4,-1,0,-1,-2,5,-2
1541872386320809,0,-2,-8,-3,1,-2,1,-1
1541872386320809,1,-4,6,-3,0,5,0,-1
1541872386332822,-1,0,5,-1,0,-2,1,-1
1541872386332822,-2,2,3,1,-1,1,0,0
1541872386341811,1,1,1,2,-1,7,1,3
1541872386341811,0,-1,-1,-2,1,2,-1,-2
1541872386355842,0,-2,-7,-3,1,7,4,-2
1541872386355842,-1,-3,-1,0,0,7,-1,-1
1541872386362846,-1,3,-10,2,2,13,1,0
1541872386362846,-4,6,-3,0,-1,12,0,-1
1541872386378897,1,15,1,0,-1,18,3,1
1541872386378897,-3,5,-2,-4,-1,16,-1,0
1541872386380843,-2,0,12,-4,1,19,-2,1
1541872386380843,0,-7,0,-3,1,19,0,0
1541872386392908,-4,-27,-2,1,-1,15,0,0
1541872386392908,-2,-20,3,-3,-4,2,-1,0
1541872386401862,-1,-4,0,0,-5,-8,2,-4
1541872386401862,1,-1,2,2,-3,-10,-3,-4
1541872386415891,0,3,-4,-4,2,-8,0,-2
1541872386415891,-2,-1,3,-5,3,-10,0,-1
1541872386422897,-4,2,1,-4,-2,-13,-4,1
1541872386422897,0,7,-13,-1,-1,-7,-3,-2
1541872386438910,-2,6,-3,0,-1,-2,-4,-1
1541872386438910,1,2,-8,1,0,5,-10,-4
1541872386440902,2,2,-4,1,1,-3,13,-2
1541872386440902,-4,0,-3,-5,-5,-12,13,0
1541872386452921,0,2,-4,3,2,-5,9,-1
1541872386452921,2,0,-17,-1,-3,-22,-13,1
1541872386461919,1,2,-5,2,-3,-27,-26,-4
1541872386461919,0,-4,-7,-1,-2,-17,-13,-2
1541872386475940,-4,-1,-10,-1,0,-10,-11,-1
1541872386475940,-3,0,1,-5,-4,-17,-4,1
1541872386482930,-1,1,-5,1,-5,-27,-9,-1
1541872386482930,-3,0,3,0,-3,-23,-1,0
1541872386498960,-2,0,-3,-2,-6,-16,-1,-1
1541872386498960,-1,0,3,0,1,-8,3,-2
1541872386500959,0,-5,3,-1,0,0,1,-3
1541872386500959,-2,-4,1,-1,0,-3,2,-2
1541872386521978,-2,-3,2,-5,-2,-4,4,-3
1541872386521978,-1,2,7,4,-1,12,9,-1
1541872386522979,2,-1,7,0,-1,12,8,0
1541872386522979,1,-1,2,2,1,23,2,0
1541872386543997,2,1,3,-2,-1,16,4,3
1541872386543997,1,-2,6,-3,-2,14,4,0
1541872386545979,-4,-2,2,1,-3,10,2,1
1541872386545979,0,-2,0,2,0,1,-1,0
1541872386559044,-2,-1,5,2,2,-11,-5,-1
1541872386559044,-1,2,-5,0,1,-7,2,-1
1541872386561007,-1,-1,-4,-1,0,0,0,-2
1541872386561007,1,-2,1,1,0,-5,-1,-2
1541872386582065,-3,-4,-2,-5,-2,-6,-4,-4
1541872386582065,-2,0,-1,1,0,-3,0,-1
1541872386583012,-1,-1,-1,-2,1,3,0,-1
1541872386583012,-2,-2,1,0,-2,0,-2,2
1541872386597075,-1,-3,6,1,-1,-2,-1,-1
1541872386597075,0,0,1,0,-2,3,-1,1
1541872386598077,-2,-4,0,4,2,8,-1,-2
1541872386598077,-1,-2,-1,-1,1,6,-2,-1
1541872386619042,2,-2,-2,0,-1,9,4,0
1541872386619042,-1,2,-6,1,0,7,1,-1
1541872386621040,-1,-1,-1,-2,0,5,-2,1
1541872386621040,-3,1,-6,-3,0,6,1,0
1541872386642114,1,-1,-11,0,-1,0,-3,3
1541872386642114,-1,-2,2,2,-1,-2,-1,-3
1541872386643094,2,3,1,-2,0,0,0,0
1541872386643094,-1,-2,0,-2,1,4,-3,0
1541872386656089,-5,-6,9,0,-3,-2,-1,-2
1541872386656089,0,-5,-1,-4,-2,-4,0,-2
1541872386663094,-3,0,-1,-2,0,0,-1,-2
1541872386663094,2,-1,1,-2,-3,0,-1,1
1541872386679108,2,2,-1,-1,1,-3,0,-1
1541872386679108,0,1,2,2,0,0,-2,0
1541872386681091,-1,-1,-7,0,0,-2,-1,-1
1541872386681091,-2,-2,-5,-2,-2,-3,-2,-3
1541872386702161,2,2,-2,0,-1,1,0,-2
1541872386702161,0,-2,-9,-5,0,0,-2,-1
1541872386703131,1,-3,-1,-1,-2,-3,-1,-1
1541872386703131,-2,-1,-2,-1,-2,-1,0,-2
1541872386716120,-5,-4,7,-3,-2,1,-2,-4
1541872386716120,0,0,0,1,0,-4,-1,-1
1541872386723145,-1,-1,2,-1,-1,-1,0,1
1541872386723145,-1,-3,-6,-3,0,0,0,-2
1541872386739158,3,2,-7,2,2,-1,-3,0
1541872386739158,-3,-4,-1,-7,-2,-6,-1,-1
1541872386741159,-2,1,1,-1,1,2,1,0
1541872386741159,0,3,8,-2,-1,-4,-5,0
1541872386762177,0,2,-3,0,1,0,-2,-1
1541872386762177,-1,-2,1,-1,-1,0,-1,0
1541872386763159,0,-1,0,-2,0,0,0,2
1541872386763159,1,1,7,3,-1,2,1,-3
1541872386776171,0,2,2,-4,2,-3,-1,-2
1541872386776171,-1,-2,3,3,-2,3,-3,1
1541872386783190,0,0,5,0,-2,-3,0,-1
1541872386783190,0,-1,-2,1,1,-1,-3,-1
1541872386799242,-1,-4,-5,-4,-2,-1,-3,3
1541872386799242,-1,0,-2,0,0,0,-3,-1
1541872386801208,-1,-1,-6,-2,-1,1,0,1
1541872386801208,-3,0,-8,-4,-2,0,1,0
1541872386822226,-1,0,-7,5,0,1,1,0
1541872386822226,0,2,-1,-2,-1,1,0,-4
1541872386824227,2,1,-3,-2,-4,0,0,-1
1541872386824227,0,2,-7,0,0,-6,-2,-1
1541872386836236,-1,0,-3,-3,-6,-1,-1,-5
1541872386836236,-1,-3,-2,2,3,-1,0,4
1541872386843279,-1,1,-4,-1,-1,-2,-3,-3
1541872386843279,-2,-4,5,1,0,5,-4,-1
1541872386859256,-4,0,-3,0,0,-4,-1,1
1541872386859256,2,-2,-4,1,0,0,0,0
1541872386861258,-2,-5,-8,-6,-2,-3,1,-1
1541872386861258,2,1,-3,0,0,-2,0,-1
1541872386882262,-1,-2,-6,-4,-2,-1,2,-5
1541872386882262,-2,-1,0,-3,-3,-2,-1,-3
1541872386883267,-2,-3,2,-1,-1,-2,-3,-1
1541872386883267,0,-1,-1,1,0,0,-2,1
1541872386896322,-2,-1,4,-1,-1,-1,-1,-2
1541872386896322,0,0,-2,1,0,-1,-2,2
1541872386903292,-1,-2,4,3,-2,0,-3,-3
1541872386903292,-1,-2,3,-1,1,-1,1,-1
1541872386919307,1,-2,7,-1,-1,1,0,1
1541872386919307,0,0,6,0,0,-2,-1,-1
1541872386921307,1,-2,-1,1,1,1,-3,0
1541872386921307,-2,0,-2,1,-1,1,-2,-1
1541872386941324,-3,-3,-4,-2,-1,0,-1,-1
1541872386941324,-2,-5,-2,-1,-2,-2,2,-2
1541872386943305,-2,-1,4,-1,0,-2,1,0
1541872386943305,0,-2,4,-5,-4,-1,1,2
1541872386956335,-1,2,3,3,-2,-1,-1,0
1541872386956335,1,-3,-5,-2,2,-2,-1,-1
1541872386963338,-3,-1,2,-1,0,-3,-3,-5
1541872386963338,-1,-2,1,0,1,0,1,0
1541872386979390,0,-4,-8,-1,0,1,-2,-1
1541872386979390,-2,-1,-1,1,-3,0,0,2
1541872386981395,1,-1,4,3,0,-1,1,0
1541872386981395,-1,-3,-1,-2,0,0,-2,-3
1541872387001373,2,2,-4,4,-1,-1,1,0
1541872387001373,-3,-2,7,-6,-1,-3,-2,-3
1541872387003356,0,-1,-1,1,-3,0,-1,-1
1541872387003356,-1,2,-3,3,-4,-2,1,-2
1541872387015384,-2,-1,1,-1,-1,0,-1,2
1541872387015384,-1,0,-3,-2,-1,1,0,-3
1541872387024374,-1,1,3,-3,-3,1,2,0
1541872387024374,-2,-1,-4,-5,-2,-1,0,2
1541872387039405,1,0,-5,1,0,-1,1,1
1541872387039405,1,2,-2,1,-1,0,-1,0
1541872387041409,-3,0,-3,-2,0,0,-1,0
1541872387041409,-3,-3,0,-4,-1,0,-4,-3
1541872387061424,-2,-1,4,-4,-1,-2,-1,-1
1541872387061424,2,4,7,-1,2,1,-1,1
1541872387063416,-1,-2,1,-2,-1,1,-2,-2
1541872387063416,-2,-3,0,-2,0,-2,0,0
1541872387075434,-4,0,2,-2,2,1,-4,-2
1541872387075434,2,1,0,2,-2,-2,1,-2
1541872387084433,-1,3,-6,-3,-2,-2,0,3
1541872387084433,-2,-1,-2,1,-2,-1,2,-3
1541872387099489,-9,-4,5,1,-1,1,0,2
1541872387099489,6,-5,-10,-1,0,-3,-5,-5
1541872387101447,-3,-2,1,-3,1,0,-1,-2
1541872387101447,-3,1,-1,1,0,-2,-1,0
1541872387121508,2,0,-8,-1,-1,-1,-1,4
1541872387121508,13,-2,4,-4,-3,1,-3,-16
1541872387123456,-7,1,-4,0,0,-1,1,-1
1541872387123456,-3,-5,0,-1,-1,0,-3,1
1541872387135520,-7,-2,6,-3,-2,0,0,-5
1541872387135520,-2,2,4,2,0,0,1,5
1541872387144481,10,3,3,0,-1,1,-1,6
1541872387144481,0,3,-1,-1,2,4,3,-2
1541872387159540,-1,0,2,-2,0,0,-2,-6
1541872387159540,-7,0,-2,0,-3,-2,5,2
1541872387160507,0,-4,6,-2,-4,-5,-2,-3
1541872387160507,-3,3,10,2,-2,-2,1,1
1541872387181557,4,-1,-9,-3,-2,-1,2,2
1541872387181557,-5,0,-3,-2,-1,3,0,0
1541872387183505,-2,-1,-3,2,-1,-2,-2,-1
1541872387183505,6,-3,0,-3,-4,-2,-2,-3
1541872387195570,2,-1,-9,0,-1,-3,-2,-5
1541872387195570,-6,0,-2,4,-1,1,0,4
1541872387204531,-1,-3,-3,-1,-1,-2,-3,-5
1541872387204531,1,-2,-4,-1,-1,-1,0,-2
1541872387218554,2,0,-3,1,1,-2,0,2
1541872387218554,-6,1,-13,1,0,-5,-1,4
1541872387225558,0,-1,0,1,0,0,0,-2
1541872387225558,0,-2,-7,0,-3,1,-2,-1
1541872387240573,0,-2,-1,0,-3,1,-3,-4
1541872387240573,0,-2,1,0,0,-4,-1,-2
1541872387249570,1,1,-3,-3,0,0,2,0
1541872387249570,0,3,0,0,3,0,-4,2
1541872387255585,1,1,-1,1,2,-1,-1,-3
1541872387255585,-2,-3,-3,-2,-1,3,-2,4
1541872387264583,1,2,6,-3,-1,-1,1,-4
1541872387264583,-1,-2,0,0,-3,-4,1,0
1541872387278602,-1,-1,0,0,0,-2,-4,-2
1541872387278602,1,1,-3,1,-1,-1,-1,-2
1541872387285607,-3,-1,-3,1,0,0,0,-3
1541872387285607,0,0,-5,-3,-3,-1,-2,-1
1541872387301616,-1,2,-3,1,1,-1,-2,1
1541872387301616,-3,-6,-3,-3,-3,-2,-1,-2
1541872387303603,-3,-1,-1,-1,-2,0,-1,-6
1541872387303603,1,-4,6,-4,0,-2,1,1
1541872387315667,0,2,6,-5,-1,0,-4,2
1541872387315667,-1,2,8,-1,-1,2,-2,-1
1541872387324637,-1,-1,-2,-3,3,-2,-2,2
1541872387324637,-2,-3,-1,-1,-3,-2,1,-2
1541872387338650,1,-1,4,0,2,-1,-3,0
1541872387338650,-2,-2,3,1,-2,1,1,-1
1541872387345656,1,1,-4,4,-2,-3,-2,1
1541872387345656,-2,0,-2,0,1,-3,-3,0
1541872387361670,-3,-3,1,-3,-1,0,2,2
1541872387361670,-2,2,6,-3,-1,-1,-2,-2
1541872387363671,1,-3,-1,3,-2,-1,-1,2
1541872387363671,0,2,-1,1,-1,0,-2,-2
1541872387375681,0,-6,0,-1,-2,-1,0,-4
1541872387375681,-3,0,-1,-2,0,-1,1,0
1541872387384689,-2,-1,0,0,-2,2,-1,-3
1541872387384689,4,1,-2,-2,-1,-2,-2,1
1541872387398699,-10,-2,-2,-2,-4,-2,2,-1
1541872387398699,2,0,-6,-3,2,1,0,6
1541872387405706,-5,0,0,-3,0,-3,-3,-20
1541872387405706,1,-1,7,1,1,0,-1,-2
1541872387421719,3,2,1,1,-2,2,0,1
1541872387421719,-2,-2,5,-1,-1,6,0,0
1541872387423721,0,0,-3,-2,-1,-7,0,3
1541872387423721,-3,0,-1,1,-1,2,-1,2
1541872387444738,1,4,-3,0,0,3,-1,-1
1541872387444738,1,-2,-1,-1,-4,-4,-1,-3
1541872387445720,0,0,6,-2,-1,4,2,9
1541872387445720,1,-4,-2,-3,-4,-2,-3,-1
1541872387458750,-2,-2,5,0,-2,-4,-2,-7
1541872387458750,2,0,-1,0,2,4,-1,-6
1541872387465755,-1,0,4,1,0,-9,1,9
1541872387465755,-2,0,-3,-3,-2,-3,1,-2
1541872387481768,1,-3,-8,-5,-3,-5,-3,-2
1541872387481768,0,0,3,1,1,5,-2,-1
1541872387483752,1,-5,12,-1,-3,-1,0,-1
1541872387483752,-3,2,2,-1,-1,-1,1,2
1541872387504805,3,-5,-5,0,0,3,0,-3
1541872387504805,-1,7,4,0,-1,-3,4,6
1541872387505786,-4,-10,-6,0,-3,1,-5,-1
1541872387505786,-3,-3,-3,0,-2,1,0,-5
1541872387518799,-2,-1,-1,0,1,-7,-1,1
1541872387518799,0,-4,0,1,2,7,-1,-1
1541872387525806,2,4,4,0,-2,-6,-2,3
1541872387525806,-2,3,-4,-1,-1,-2,-2,-1
1541872387541819,-2,-4,-7,2,2,2,1,1
1541872387541819,-2,-1,0,-2,-3,-4,-2,1
1541872387543801,1,1,-3,1,3,6,3,0
1541872387543801,-3,-8,-2,-3,-4,-2,-2,-7
1541872387564855,-2,-1,-4,1,1,-2,-1,2
1541872387564855,-3,-1,-9,-4,-5,-5,0,4
1541872387565823,-2,1,-3,-1,-1,4,-10,-25
1541872387565823,-2,-2,-9,0,4,1,5,7
1541872387577884,-1,1,-6,-1,-6,-1,-2,2
1541872387577884,-2,-1,-9,-1,4,-3,0,-11
1541872387586846,0,1,-6,-2,-2,-1,-2,7
1541872387586846,1,-1,-6,-1,0,0,-1,-7
1541872387601868,4,3,-1,1,-2,2,4,2
1541872387601868,-2,-2,-10,0,-1,-1,1,7
1541872387603869,-3,2,-10,-3,1,2,-2,5
1541872387603869,0,4,0,1,0,-1,-3,-1
1541872387624881,1,1,4,0,-1,1,0,-1
1541872387624881,-2,-3,7,-2,-2,-6,-3,-6
1541872387625884,1,-1,-2,1,0,1,5,2
1541872387625884,1,0,2,-1,-2,-1,2,0
1541872387637933,-3,1,-3,0,0,-2,-4,1
1541872387637933,0,1,-2,2,-3,-2,-1,2
1541872387646888,-3,-5,3,-4,-3,2,0,-1
1541872387646888,0,-2,1,1,0,0,0,2
1541872387661917,0,2,-3,1,3,-2,-1,1
1541872387661917,-1,-3,2,-2,-1,0,-2,-2
1541872387663920,1,-2,2,0,-2,0,3,10
1541872387663920,0,0,-4,1,-3,0,-2,-8
1541872387683935,-1,2,-1,0,-1,-2,-4,2
1541872387683935,-1,0,-11,-2,3,0,-1,-2
1541872387685919,0,0,-3,-1,1,-2,-2,-5
1541872387685919,-2,1,0,2,0,0,2,6
1541872387697943,-2,-2,8,-1,1,1,1,-4
1541872387697943,-1,0,8,-2,-3,-3,-1,-3
1541872387706935,-3,-2,-1,-1,0,0,-1,3
1541872387706935,2,0,-6,0,4,1,-3,1
1541872387721967,-1,0,-5,1,-2,0,1,-1
1541872387721967,-2,-3,3,0,1,0,-1,0
1541872387723962,-2,0,16,-1,-1,0,0,-4
1541872387723962,-3,0,10,-3,-3,1,-2,-3
1541872387744021,0,-3,-2,0,-1,-9,-2,-3
1541872387744021,0,1,7,2,-2,0,0,6
1541872387745978,-2,-1,-1,-3,1,5,2,-16
1541872387745978,-2,-4,0,0,-2,-3,-3,0
1541872387757998,-2,1,-1,-3,-3,-1,0,2
1541872387757998,0,-2,-3,0,-5,-1,-2,1
1541872387766994,1,2,4,2,2,-1,1,2
1541872387766994,1,-3,0,-3,-3,-3,-2,13
1541872387782000,0,-6,-5,-3,1,2,2,-4
1541872387782000,1,2,-1,-2,0,1,1,-1
1541872387783999,-5,2,-3,1,-1,-3,1,6
1541872387783999,1,-1,-3,-1,0,-2,-11,-8
1541872387804070,0,-1,-7,-3,-3,0,3,14
1541872387804070,-3,-1,-7,-3,-1,0,-3,-11
1541872387806017,2,0,0,-2,3,-2,4,5
1541872387806017,0,0,1,-2,2,0,1,-4
1541872387818083,-1,-1,8,-1,-3,4,1,-1
1541872387818083,-1,-1,3,0,-3,-3,-1,1
1541872387827046,0,-1,0,0,-2,-1,-1,0
1541872387827046,-1,-2,2,0,-1,-1,5,3
1541872387842066,-2,1,5,-2,-2,1,-8,-18
1541872387842066,0,-1,0,0,-1,-9,6,1
1541872387844061,2,-2,-5,-1,-2,2,-8,1
1541872387844061,-6,-1,-2,0,-1,0,7,-2
1541872387864085,1,0,-5,-1,-3,1,-6,1
1541872387864085,0,0,2,-3,5,-1,-3,-3
1541872387866078,0,0,-4,2,-4,-3,-4,4
1541872387866078,-1,-2,-3,-3,3,6,10,2
1541872387878133,-8,-3,8,-2,-6,-5,-3,-2
1541872387878133,-1,-5,4,1,1,3,-8,-2
1541872387887095,1,0,-2,1,-4,-17,-2,7
1541872387887095,1,1,4,-2,-1,0,-11,-14
1541872387902111,-1,-5,-6,-3,0,1,8,7
1541872387902111,1,-2,3,-2,-2,1,-2,-1
1541872387904098,-3,-1,-9,-2,-3,7,2,-10
1541872387904098,-1,0,-2,-1,2,-4,5,7
1541872387932141,0,1,-2,1,0,-8,-5,-4
1541872387932141,-1,-1,2,-1,-2,-1,-2,-3
1541872387933142,-1,-4,1,-2,2,4,-2,-8
1541872387933142,1,0,3,0,-5,-4,0,1
1541872387938145,0,1,0,-1,4,8,1,-2
1541872387938145,1,-1,-13,-1,-5,-6,0,11
1541872387947134,-2,-1,-6,-3,-2,-6,-2,-13
1541872387947134,-1,-2,-4,0,5,7,-7,0
1541872387962165,1,2,-5,2,0,2,2,3
1541872387962165,1,1,-5,-2,-2,2,0,-3
1541872387963165,-1,-1,2,-1,-3,-3,1,-5
1541872387963165,-3,-2,-1,-3,-3,-3,-1,0
1541872387984183,0,3,4,2,-1,-5,1,-7
1541872387984183,-4,-2,2,-1,1,-3,2,5
1541872387986166,-1,-1,-1,3,3,5,-6,1
1541872387986166,1,2,-7,-4,-1,-2,-1,-2
1541872387998196,-2,0,-7,0,0,8,-4,-1
1541872387998196,0,-2,-7,2,-5,-11,2,-5
1541872388007185,1,-1,-6,0,3,5,-8,5
1541872388007185,-3,2,3,3,-3,-1,3,0
1541872388022214,1,-5,-1,-1,0,0,5,6
1541872388022214,-1,0,5,0,-1,7,-6,-7
1541872388023206,0,1,-1,-1,0,1,1,0
1541872388023206,0,0,-2,1,2,-1,0,3
1541872388044232,2,-1,2,-1,0,-1,-1,-4
1541872388044232,-2,2,0,-2,1,-2,2,-1
1541872388046233,-2,1,-5,3,0,-2,1,7
1541872388046233,-2,-3,3,-3,-3,-3,-7,-5
1541872388058245,0,-2,3,-2,-2,-1,-4,-1
1541872388058245,0,-1,-2,2,2,8,-1,-2
1541872388067251,-2,-4,-1,-3,-4,-13,-5,1
1541872388067251,-2,-3,-3,-1,2,3,3,-5
1541872388082264,-2,0,-1,0,-1,6,0,-4
1541872388082264,2,2,1,-1,3,-3,-8,-1
1541872388084265,-1,-3,3,-2,-3,4,8,4
1541872388084265,0,-3,-4,-3,-2,-2,-5,1
1541872388104318,0,0,-1,2,-2,-5,2,7
1541872388104318,0,-2,-5,0,2,1,-4,-11
1541872388106279,-1,0,5,1,-2,0,6,-8
1541872388106279,1,1,-1,0,0,-4,-8,-1
1541872388118274,-3,0,-5,-3,-1,1,-3,0
1541872388118274,0,-1,-3,-2,0,1,5,-1
1541872388127297,-4,-2,-6,-3,1,0,0,-1
1541872388127297,-1,0,-9,-1,-1,3,-2,0
1541872388142313,-4,-1,-7,-2,-2,-10,-1,-7
1541872388142313,-1,-3,11,-2,-3,-8,-1,3
1541872388143295,-1,-1,3,-1,0,-2,-6,-1
1541872388143295,2,0,2,0,0,6,3,0
1541872388164328,1,-1,2,3,2,-1,-2,1
1541872388164328,0,-1,-3,-2,-3,-12,2,-2
1541872388166334,-2,0,-3,1,-5,4,5,0
1541872388166334,0,1,-1,-1,1,4,-2,-3
1541872388178343,-1,0,4,0,-3,-7,1,-9
1541872388178343,1,-4,2,1,-5,5,-11,-6
1541872388187350,1,2,-2,-1,0,-1,3,2
1541872388187350,0,-2,-5,2,-5,0,2,-1
1541872388209369,-1,2,-1,-3,3,-1,0,-9
1541872388209369,-3,-3,-2,2,1,4,-5,0
1541872388211371,1,-1,-5,-4,-1,-3,-8,2
1541872388211371,0,-3,-5,-3,-2,-8,-1,-3
1541872388224416,0,-4,-2,-2,-4,-1,4,1
1541872388224416,0,3,-4,-3,-3,-5,10,2
1541872388226400,1,-1,-1,1,1,9,-12,-5
1541872388226400,-1,2,0,3,-2,-18,3,4
1541872388238393,-3,-5,-3,-6,-5,4,-9,-1
1541872388238393,-1,0,5,-1,0,3,8,-5
1541872388247400,-2,-2,4,-2,-2,-5,-2,3
1541872388247400,-4,-3,0,1,3,9,1,-9
1541872388261402,1,2,-2,1,-4,-12,4,3
1541872388261402,1,2,1,0,2,6,-6,3
1541872388268417,0,-4,-1,1,3,1,7,-4
1541872388268417,1,1,-3,-1,-5,5,-4,-1
1541872388284431,-1,0,-6,3,1,2,-2,5
1541872388284431,2,1,-3,1,5,6,1,-2
1541872388286432,-4,-1,-3,0,-4,-1,-1,1
1541872388286432,1,-2,0,-3,1,2,-1,0
1541872388298479,-2,-1,2,-3,0,-14,-4,-1
1541872388298479,1,0,-4,-1,-2,-3,-2,2
1541872388307449,0,1,1,0,0,-2,-4,-1
1541872388307449,0,-1,2,-2,-3,-3,1,-1
1541872388321460,-1,1,-2,-2,1,6,0,-3
1541872388321460,-5,-1,0,3,3,-3,-1,0
1541872388328467,5,-3,-5,-1,1,3,7,-1
1541872388328467,3,2,0,0,-1,2,-3,-2
1541872388344480,-4,-3,3,-2,-6,-8,-6,-2
1541872388344480,2,-4,-2,-4,-3,2,0,6
1541872388346481,1,-2,-3,1,-3,5,4,-6
1541872388346481,2,-1,-2,0,4,-3,-12,4
1541872388367490,-4,-2,-4,-4,-3,2,-3,-9
1541872388367490,1,0,-4,-2,-2,-4,0,2
1541872388368480,-3,0,-3,-6,1,-4,-2,-17
1541872388368480,-3,0,2,1,0,-8,1,0
1541872388381510,2,5,2,2,2,10,3,2
1541872388381510,-5,0,-3,-1,-5,-12,-1,1
1541872388388516,2,4,2,-3,-2,2,-1,3
1541872388388516,-5,-4,2,-1,-3,-2,1,-3
1541872388404529,-1,-2,-2,2,1,8,6,1
1541872388404529,4,3,1,1,6,6,-1,1
1541872388406531,-4,-1,-5,0,-4,-7,1,6
1541872388406531,-1,-3,-4,-4,1,0,-1,-3
1541872388426583,-4,1,-4,-5,-1,-7,-4,1
1541872388426583,-2,-3,3,-1,-1,3,-1,0
1541872388428530,-5,-3,2,1,-1,-2,1,2
1541872388428530,-1,-2,-3,-1,-1,2,-4,-4
1541872388441561,1,-3,1,0,-3,-3,-2,4
1541872388441561,-2,-2,-2,-1,-4,-1,0,-2
1541872388448562,-2,0,1,-4,0,-3,0,-5
1541872388448562,-3,2,0,-1,0,1,0,-2
1541872388464579,1,-2,0,2,1,0,-1,3
1541872388464579,-3,-5,-3,0,0,1,6,-2
1541872388466578,0,-2,-1,2,-5,2,2,5
1541872388466578,-3,1,-4,-5,-1,-4,-4,-5
1541872388486580,0,0,2,0,6,8,1,-1
1541872388486580,-3,0,1,-1,-3,-6,-4,3
1541872388488592,0,3,-1,3,-4,-2,-6,0
1541872388488592,1,-2,-2,-2,-7,-2,1,-1
1541872388500611,0,-1,0,-2,0,0,1,1
1541872388500611,-1,-1,1,-3,-4,1,-4,-1
1541872388509608,1,1,-2,2,8,-1,-7,-1
1541872388509608,0,1,6,4,1,0,0,3
1541872388524624,1,-1,-3,-2,-5,-5,-4,0
1541872388524624,-2,-3,-5,-4,-6,-5,0,-1
1541872388525631,2,-1,0,0,6,-8,5,0
1541872388525631,-4,-3,-5,-1,1,1,1,4
1541872388546659,-4,2,0,-1,0,1,-3,1
1541872388546659,1,-1,1,-3,-4,-2,0,-8
1541872388548631,1,-1,-3,-5,-2,-2,-6,0
1541872388548631,0,2,4,1,-4,-1,-1,1
1541872388560659,2,-1,0,1,3,0,3,3
1541872388560659,1,-2,-2,-1,-1,4,0,2
1541872388569656,-2,3,2,4,-1,3,4,1
1541872388569656,-1,-2,-1,-5,0,-7,-3,-2
1541872388584678,1,-2,-2,-1,2,-5,-5,-6
1541872388584678,1,-1,0,0,1,11,-4,2
1541872388585679,-1,0,-2,2,3,-11,-3,1
1541872388585679,-1,-1,-2,-1,-1,2,7,2
1541872388606732,-4,-2,-3,0,-2,-2,-20,-3
1541872388606732,-2,0,-3,1,1,-8,8,-10
1541872388608693,1,-4,-1,-3,2,5,1,4
1541872388608693,-2,-2,3,1,-4,-2,9,1
1541872388620707,0,0,-2,-1,-2,2,3,-3
1541872388620707,-3,2,-1,0,-1,0,-4,-3
1541872388629706,0,-1,0,-1,0,0,-4,6
1541872388629706,-6,3,1,-2,0,-2,-2,-12
1541872388644727,1,2,6,1,0,5,-1,1
1541872388644727,0,-2,-1,-3,0,-2,0,-1
1541872388645728,-2,-4,1,-2,-5,0,0,-6
1541872388645728,3,0,-7,2,3,-9,-4,2
1541872388666746,-1,3,-9,-5,-7,3,0,-1
1541872388666746,0,3,-6,4,1,-1,8,2
1541872388668736,3,3,-6,-1,-1,-4,3,-3
1541872388668736,0,4,1,0,-3,4,3,1
1541872388680758,0,7,-3,-3,-2,-11,3,0
1541872388680758,2,-6,1,-4,2,11,-16,2
1541872388695769,-1,-11,1,1,-3,-13,0,-2
1541872388695769,-3,5,5,3,4,6,-4,1
1541872388704777,-1,-8,14,3,-1,0,2,-2
1541872388704777,-2,-11,0,-4,-1,0,2,-2
1541872388705774,0,-2,-1,0,1,1,-7,-2
1541872388705774,-1,-5,-9,0,-3,-2,-1,1
1541872388734838,0,7,-14,1,0,6,5,-2
1541872388734838,-1,6,-8,-3,-3,-2,-1,0
1541872388735811,-2,-3,-5,-1,0,0,-2,-4
1541872388735811,0,1,0,1,0,1,0,1
1541872388740807,0,1,0,-1,0,0,1,-1
1541872388740807,-1,9,7,2,1,-6,-3,-3
1541872388749814,-4,4,2,-1,-1,4,2,2
1541872388749814,0,-3,3,-3,-2,1,1,6
1541872388764825,-1,-7,12,-1,-2,-7,-4,-3
1541872388764825,-1,-2,10,0,2,-9,2,7
1541872388765808,6,2,3,-4,-2,7,-7,-4
1541872388765808,-3,-2,-9,-1,-1,-7,-4,-2
1541872388786880,-6,-21,-15,0,4,9,1,1
1541872388786880,-3,1,-11,0,-1,-18,5,1
1541872388788842,0,5,-7,-2,-3,-3,1,1
1541872388788842,11,2,3,-6,-2,5,-4,-2
1541872388800890,14,9,4,-3,-3,-5,-3,1
1541872388800890,41,4,-1,0,-2,5,2,-7
1541872388809863,28,-8,3,-1,0,4,4,3
1541872388809863,5,-5,5,-2,-1,-1,0,2
1541872388824875,-28,-4,3,-5,-2,0,-2,0
1541872388824875,-9,-8,5,-4,-5,0,1,-5
1541872388825858,-22,-1,1,8,5,-3,5,-2
1541872388825858,-8,-11,0,0,-1,0,-5,0
1541872388845894,2,3,1,1,-1,-1,-2,-2
1541872388845894,-4,6,-3,-2,-4,-2,-8,-2
1541872388846875,-8,4,1,-7,0,13,-2,-6
1541872388846875,2,4,8,1,-6,-17,8,-4
1541872388868912,21,-7,6,4,7,7,12,11
1541872388868912,45,-7,4,-3,0,1,-8,22
1541872388869913,29,-5,-10,-1,-6,-2,-3,104
1541872388869913,28,-8,-1,2,0,-3,-1,120
1541872388883925,-7,3,15,0,0,-1,1,127
1541872388883925,0,0,17,6,1,6,10,127
1541872388884925,-49,1,4,0,0,4,-1,-103
1541872388884925,-74,-2,-22,-4,-2,-5,-15,-111
1541872388905943,-35,-10,-15,2,7,-2,2,-128
1541872388905943,-31,-7,-15,-5,-5,-5,-11,-128
1541872388906929,-8,-6,5,-3,-2,-7,-4,-106
1541872388906929,7,-14,4,-1,-1,0,7,-127
1541872388928997,-6,3,-13,-5,-1,-4,-15,-109
1541872388928997,-22,2,1,-1,0,-5,2,67
1541872388929963,17,7,0,-6,-2,-8,0,95
1541872388929963,20,-2,-6,-4,-1,-1,4,127
1541872388943973,19,5,-1,3,0,-4,-2,115
1541872388943973,-2,-8,-13,1,0,1,4,-30
1541872388944975,0,-6,-17,1,-3,8,-6,-43
1541872388944975,-2,3,23,0,6,-9,1,-20
1541872388965987,-18,-1,6,-6,-9,4,-1,1
1541872388965987,-7,5,10,4,0,3,10,13
1541872388966973,-6,-5,23,3,4,2,1,-12
1541872388966973,-4,3,1,0,-2,12,-3,-30
1541872388989011,16,-5,10,-2,-2,-6,-5,-1
1541872388989011,-26,-8,-13,0,1,0,-9,-70
1541872388990011,-4,0,-19,3,1,-5,5,66
1541872388990011,13,1,-38,0,-1,4,4,40
1541872389004005,8,2,-32,0,-2,-7,4,21
1541872389004005,10,9,-6,-3,-2,3,5,9
1541872389005026,10,-1,22,4,3,-2,5,14
1541872389005026,-1,5,34,2,-5,-3,1,-3
1541872389026042,20,-9,21,-6,5,2,-17,54
1541872389026042,12,-4,-31,-4,6,4,-4,24
1541872389027022,-7,-2,-22,-5,1,-4,-1,-17
1541872389027022,-3,-1,-18,0,-4,-3,-5,79
1541872389049061,-8,1,-5,3,-3,14,14,59
1541872389049061,-13,4,17,2,-5,-20,-12,28
1541872389050062,33,1,0,0,-2,6,-2,121
1541872389050062,24,10,-11,0,3,9,-2,-56
1541872389064074,40,-7,4,1,-4,-1,2,-68
1541872389064074,10,-3,30,-3,-2,1,-2,111
1541872389065075,-28,3,15,1,-1,-3,-3,-5
1541872389065075,-22,-4,5,-1,-3,4,-7,-63
1541872389086091,-28,2,32,-2,4,-6,-3,-74
1541872389086091,-9,6,-26,-5,-6,-5,2,-128
1541872389087083,-17,-2,-41,-7,-6,-10,-16,-127
1541872389087083,-14,-3,-18,0,4,-1,-1,42
1541872389109110,-21,10,-18,-5,-2,-11,3,-97
1541872389109110,-5,-7,6,1,1,4,-11,-2
1541872389110108,10,-1,31,-3,-2,4,5,90
1541872389110108,-7,-6,24,-2,-1,-3,-3,101
1541872389124105,-20,-4,3,5,7,9,7,-16
1541872389124105,-11,6,-24,-1,-3,-7,0,10
1541872389125107,-4,-3,-1,1,-1,-5,-2,72
1541872389125107,14,-7,-3,3,5,0,3,67
1541872389146179,25,2,-33,1,-5,1,-6,127
1541872389146179,4,-6,2,1,1,14,5,-43
1541872389147122,-25,-4,-3,1,-6,-7,6,-128
1541872389147122,-10,-1,-14,-3,-4,4,3,-5
1541872389169159,-9,-5,-39,1,0,-8,1,-126
1541872389169159,4,6,-16,1,-4,2,-14,-101
1541872389169159,16,1,15,-1,0,7,5,-21
1541872389169159,9,-6,15,-1,-3,-4,1,-128
1541872389184172,31,-2,10,3,0,-1,10,-69
1541872389184172,9,-9,-9,1,2,7,2,79
1541872389184172,15,1,25,-2,-2,-2,-2,60
1541872389184172,19,-1,-14,5,4,1,5,5
1541872389206190,6,3,3,-2,-2,-3,-2,127
1541872389206190,0,2,14,3,4,0,4,29
1541872389207192,-3,0,-33,3,-4,1,-7,58
1541872389207192,-50,9,9,-1,-1,3,1,100
1541872389229208,-39,-7,28,-4,-5,2,-11,24
1541872389229208,-36,-3,6,3,4,5,9,-10
1541872389230191,-41,-6,-24,-5,-4,-2,6,-98
1541872389230191,25,3,-14,0,2,-3,-5,-128
1541872389244221,39,-5,-1,-3,-3,-6,-2,-128
1541872389244221,34,3,11,-5,2,-3,4,-97
1541872389244221,32,-11,-20,-2,0,-1,-7,-38
1541872389244221,-11,-9,-7,-4,-2,1,-1,-57
1541872389266239,-8,-1,-5,-5,0,1,-5,-12
1541872389266239,-2,-5,16,-7,-5,7,-3,5
1541872389267230,-8,12,16,-1,9,-15,-3,-2
1541872389267230,25,6,-44,-7,-5,0,-4,4
1541872389280251,-11,8,16,3,2,-13,2,17
1541872389280251,-12,-5,5,-4,-1,-3,-4,89
1541872389289258,-5,-1,-11,-13,-6,-8,-1,112
1541872389289258,1,-1,19,-4,4,-4,-12,77
1541872389304271,-12,-5,-16,-2,-2,5,3,9
1541872389304271,1,-3,-7,0,-2,-8,2,4
1541872389304271,-3,1,7,3,3,6,-3,-21
1541872389304271,-20,-12,27,1,2,-5,0,12
1541872389326289,-9,-2,-7,-4,-4,3,3,37
1541872389326289,-22,-1,6,-1,-3,-4,-8,-42
1541872389327271,12,-4,4,4,-3,7,0,-44
1541872389327271,-4,4,7,-1,-4,4,-2,-39
1541872389349291,-5,-5,8,-2,-4,-5,-8,-7
1541872389349291,1,4,6,1,5,-1,13,35
1541872389350301,8,4,11,4,-3,-1,4,-31
1541872389350301,12,2,-4,-1,-1,2,-4,6
1541872389364355,6,-10,-15,3,1,-3,-4,21
1541872389364355,28,0,-15,-4,-4,1,1,-5
1541872389364355,-15,-5,-1,2,5,4,7,-15
1541872389364355,-3,-2,12,0,-3,-3,2,13
1541872389386338,-11,1,1,-2,3,1,0,39
1541872389386338,-7,-10,-2,-1,-2,1,1,44
1541872389387339,-9,-11,4,1,-2,-2,-2,29
1541872389387339,-5,1,-4,-1,-4,-4,2,11
1541872389409392,0,-3,0,0,-1,-1,-1,-13
1541872389409392,-4,-5,-3,6,6,2,3,6
1541872389410339,-3,-3,-8,-4,-3,-5,-6,13
1541872389410339,-31,2,-4,-2,-4,1,-1,3
1541872389424351,-37,0,7,1,0,-2,1,4
1541872389424351,-3,-4,8,-4,-2,-8,-7,-31
1541872389424351,16,-4,5,0,2,7,6,-43
1541872389424351,24,4,8,3,4,-4,-4,-25
1541872389446388,29,10,8,-4,-5,-1,7,5
1541872389446388,9,6,-3,-1,-5,0,-3,32
1541872389447388,7,2,-1,-1,-1,0,-3,38
1541872389447388,9,-2,3,-2,2,12,3,23
1541872389469406,6,-4,-2,-2,-3,-14,-7,17
1541872389469406,0,0,-3,2,1,-2,-1,19
1541872389470407,-1,-1,-1,-2,3,4,-1,6
1541872389470407,0,-4,-1,1,0,0,2,-3
1541872389483399,0,5,-2,-1,0,2,-5,5
1541872389483399,1,5,-2,1,3,3,-1,4
1541872389484401,0,3,-2,-2,-6,-5,-2,-3
1541872389484401,-1,0,-7,-3,-2,-4,3,-4
1541872389506438,1,-10,0,3,3,6,-1,1
1541872389506438,-1,-3,-5,-5,-6,-7,-14,-2
1541872389507438,-1,-2,0,3,3,3,5,0
1541872389507438,-3,-5,-6,-4,-3,-5,2,-4
1541872389529491,2,-2,-3,4,-4,1,2,-3
1541872389529491,2,6,-1,-4,-2,0,1,-7
1541872389530439,-6,-4,-3,-1,-2,3,-2,-2
1541872389530439,1,-1,0,-1,3,-1,-2,-3
1541872389543467,3,4,-1,2,-2,6,-6,-4
1541872389543467,-8,0,-2,3,4,-2,12,-4
1541872389544459,1,5,-1,1,-2,-3,-7,0
1541872389544459,0,0,-1,-1,1,-1,-8,-5
1541872389566486,1,-6,-1,-2,-4,3,-3,-2
1541872389566486,3,3,3,-1,3,-6,-2,-2
1541872389567487,-4,-3,-2,1,2,1,6,1
1541872389567487,-2,-3,0,0,-1,1,-6,-7
1541872389589505,1,-5,-2,-3,0,1,4,0
1541872389589505,0,-7,-5,1,-1,-2,-6,-2
1541872389590506,-4,-4,-5,-5,-3,-9,3,-1
1541872389590506,2,-3,-2,-5,0,-1,-11,-1
1541872389603517,-2,7,-1,-3,-3,0,2,-2
1541872389603517,-4,-10,-1,2,1,0,4,0
1541872389604509,3,0,0,-1,0,-2,-10,-2
1541872389604509,-1,-8,3,3,-3,-2,5,1
1541872389626536,-2,-4,-1,1,5,1,8,0
1541872389626536,0,-4,1,1,-2,2,-7,-4
1541872389627537,1,1,2,0,-3,1,-3,-4
1541872389627537,-3,-2,-5,-4,0,-19,1,1
1541872389649555,-1,-2,0,-2,-3,-2,0,0
1541872389649555,-2,-5,-1,1,-3,2,1,0
1541872389650537,1,-3,-4,-2,-1,0,1,-3
1541872389650537,4,4,3,0,-2,-1,-3,-2
1541872389663602,-2,7,-2,1,5,3,0,-2
1541872389663602,-7,1,-2,-2,-3,-7,-6,-1
1541872389664550,2,1,1,-5,-1,-1,-1,1
1541872389664550,-1,-3,0,2,0,3,8,-1
1541872389686586,0,-5,0,-1,0,-6,-11,-1
1541872389686586,1,2,3,-3,-6,-1,-2,-1
1541872389687587,-3,-3,1,4,8,4,1,0
1541872389687587,0,-2,-1,0,-4,1,7,0
1541872389709606,-1,-7,-1,1,-2,-1,-3,-3
1541872389709606,-2,3,-3,-3,0,-2,-1,-3
1541872389710606,-3,-4,-4,-1,-4,-4,-2,-2
1541872389710606,0,2,-3,-2,1,3,4,0
1541872389723617,2,2,-3,-4,0,-4,-4,-2
1541872389723617,-1,-1,-2,0,1,8,7,0
1541872389724597,-2,-4,2,-1,-2,-4,-3,-2
1541872389724597,-2,-2,0,0,0,-1,-3,3
1541872389746670,0,-2,-2,-3,-3,-3,-4,-1
1541872389746670,-1,-2,-1,-1,3,1,5,1
1541872389747675,0,3,-5,0,0,14,-5,0
1541872389747675,-1,0,0,-4,-5,-11,-7,-5
1541872389769694,-2,-3,-5,-1,0,4,7,1
1541872389769694,-1,2,0,-1,-2,-6,-4,-3
1541872389770677,1,-2,2,-2,1,-1,3,-1
1541872389770677,-3,-2,-2,1,3,3,-6,0
1541872389783703,-1,-3,-1,-2,0,-2,2,-3
1541872389783703,-1,0,1,1,-4,0,-1,-2
1541872389784647,1,-2,-6,-2,-5,-4,1,1
1541872389784647,-1,3,2,-3,-1,1,1,-1
1541872389806720,-2,-5,-2,-2,1,-1,4,0
1541872389806720,0,1,0,-1,-4,0,-3,-2
1541872389807700,1,2,2,4,2,-5,-1,1
1541872389807700,-2,1,-1,0,-2,3,-3,0
1541872389829739,-4,3,1,1,1,2,2,-3
1541872389829739,1,3,-3,-3,-2,-5,-5,-3
1541872389830705,1,2,-2,-4,-4,-3,-3,0
1541872389830705,-2,1,1,0,1,6,4,0
1541872389843716,-3,-1,4,0,-2,0,-1,0
1541872389843716,2,1,-8,-2,-4,-3,-4,2
1541872389844708,-1,-1,3,4,3,-5,8,-1
1541872389844708,-2,1,-5,-4,-2,-4,-16,-4
1541872389866735,2,1,0,-5,-4,1,-5,0
1541872389866735,-1,-7,-1,-1,1,4,5,3
1541872389867728,-2,-5,-2,-6,-3,-1,-3,0
1541872389867728,-4,-6,-1,4,2,0,6,-1
1541872389889753,6,5,-1,-1,-1,-1,3,0
1541872389889753,-5,2,2,-2,-2,-1,-8,-2
1541872389890754,-1,0,-2,-1,-2,1,0,-5
1541872389890754,0,-8,3,1,2,6,-1,-2
1541872389903751,0,-5,-2,2,-2,-14,9,2
1541872389903751,1,-2,0,0,1,8,0,0
1541872389911771,1,-1,1,0,0,-5,-4,-1
1541872389911771,-2,1,-1,0,-3,2,1,-2
1541872389926784,-1,-1,0,-1,-1,-2,-6,-1
1541872389926784,3,-6,2,0,0,-1,1,-2
1541872389926784,-4,2,0,-2,-1,0,-1,0
1541872389926784,-1,-2,-3,4,-1,-5,-2,1
1541872389949802,2,-2,0,3,1,1,9,1
1541872389949802,-10,2,1,0,1,-5,-9,-1
1541872389950803,0,-6,1,-1,-2,2,1,-3
1541872389950803,3,-5,-1,-1,1,-7,1,-2
1541872389963811,-3,-2,0,0,2,5,3,-2
1541872389963811,0,-2,0,1,0,-1,4,0
1541872389971821,1,0,0,-4,-3,-5,-4,1
1541872389971821,0,-2,-1,1,1,-5,5,2
1541872389986833,-2,-3,0,-3,-2,5,-6,-3
1541872389986833,0,2,-3,-2,-2,-2,2,-2
1541872389986833,0,0,0,1,-3,1,-4,-1
1541872389986833,0,-1,-2,-4,-3,-3,0,0
1541872390009887,0,-3,-4,-2,-1,-5,-8,-1
1541872390009887,-2,-4,-3,-6,-1,0,4,1
1541872390010891,-1,-3,-2,0,1,0,4,1
1541872390010891,-3,0,1,0,-1,1,-3,0
1541872390022898,-3,3,0,1,1,-1,-7,-2
1541872390022898,1,0,1,1,-1,-3,-1,-1
1541872390031906,1,-3,-1,-2,-2,-4,-1,-1
1541872390031906,-1,-3,0,-2,-4,1,1,1
1541872390046883,-1,-7,1,-1,1,-5,5,1
1541872390046883,-2,-5,-1,0,-2,0,-6,-3
1541872390047863,-2,-4,2,0,0,-3,-2,-1
1541872390047863,1,4,0,-3,-1,3,0,-1
1541872390069901,-1,-4,0,-2,-2,-1,0,1
1541872390069901,0,-1,-2,-2,-3,-1,5,-1
1541872390070901,-1,-2,-2,1,2,2,0,1
1541872390070901,-7,0,0,2,1,0,-1,-1
1541872390082913,0,-4,-4,-1,-1,-1,-4,-4
1541872390082913,-1,-3,0,0,-1,-3,-1,0
1541872390091914,0,-1,-6,-1,-2,4,-2,-1
1541872390091914,0,-3,-3,0,-2,0,2,-1
1541872390106932,-3,-5,0,1,-1,-3,-5,2
1541872390106932,1,-5,-6,2,1,2,5,0
1541872390107924,-2,0,2,-1,-1,-3,-2,-2
1541872390107924,3,3,-2,-4,-1,0,2,-1
1541872390129951,-2,0,-5,-4,-2,-1,-6,3
1541872390129951,0,4,0,-2,-2,-3,1,1
1541872390130943,-1,4,0,0,-3,-1,1,-2
1541872390130943,-4,-7,-2,-1,-2,-2,0,-4
1541872390152005,0,-2,0,-4,-2,1,-3,-2
1541872390152005,0,-3,2,2,0,1,-1,1
1541872390152952,-2,0,-2,0,2,-2,-3,0
1541872390152952,1,-6,-2,-1,-2,0,-2,-1
1541872390165981,-2,-6,0,2,0,2,2,-1
1541872390165981,-1,-2,-1,-3,-3,-4,-2,-3
1541872390166963,-2,-4,-1,-3,-1,0,-2,-2
1541872390166963,2,-6,-4,-6,1,-3,3,-2
1541872390190001,2,1,-2,-5,-3,4,2,0
1541872390190001,0,-4,-2,3,2,-7,1,3
1541872390190001,-1,-1,-1,-2,-1,-2,4,-2
1541872390190001,2,3,-1,0,-2,4,-4,-2
1541872390203011,-1,-2,-3,-2,-3,-2,3,-2
1541872390203011,-1,-1,1,-5,0,6,-10,-5
1541872390211017,0,3,-3,-3,0,-1,2,1
1541872390211017,-3,0,-1,0,0,-5,2,0
1541872390226031,0,3,2,2,-1,1,-5,-1
1541872390226031,-1,-4,-1,-2,-1,-2,0,1
1541872390227012,1,0,-1,2,1,-2,0,1
1541872390227012,-1,4,0,1,-3,0,-6,-1
1541872390250050,2,5,0,-6,2,0,4,3
1541872390250050,-2,1,-3,-2,-1,-1,11,-1
1541872390250050,0,-1,0,-1,3,3,-21,-2
1541872390250050,2,-3,-1,-2,0,-2,-2,-1
1541872390272068,0,2,1,1,1,-5,-3,-3
1541872390272068,-1,2,0,0,0,-1,3,1
1541872390274070,-3,-3,-2,-1,-1,0,-4,-1
1541872390274070,-4,-2,-3,0,0,-2,1,-2
1541872390286079,-2,-6,-2,3,-3,2,-1,-2
1541872390286079,-6,-3,-3,-6,-5,-3,-6,-2
1541872390295087,-1,-4,-1,-2,-5,7,7,0
1541872390295087,-1,-3,1,-1,-3,-9,-1,0
1541872390310098,1,2,0,-1,-4,-2,-2,-1
1541872390310098,-1,-2,-6,-1,0,3,-3,0
1541872390311081,-1,2,-1,-2,1,-4,6,-2
1541872390311081,0,-4,0,1,0,4,6,-1
1541872390332118,-4,-2,0,0,-2,-2,-10,-1
1541872390332118,2,-2,3,1,1,-2,3,5
1541872390334120,0,0,-2,1,0,0,-12,-1
1541872390334120,0,-7,-4,-3,0,0,10,-2
1541872390346165,-2,-4,-5,-2,-2,0,0,-1
1541872390346165,1,-2,-1,-1,0,-1,-2,-3
1541872390355156,-2,-1,-1,-2,3,-4,4,1
1541872390355156,-2,-7,-1,-2,1,3,-9,2
1541872390370146,-6,1,-6,-2,-1,3,5,-5
1541872390370146,-2,0,0,4,0,-1,-3,-2
1541872390371142,1,-3,-2,2,-3,0,6,1
1541872390371142,-1,1,-1,0,2,-2,-4,0
1541872390392170,0,-2,-1,-2,-2,-2,3,1
1541872390392170,-1,-3,3,-1,3,3,-3,-1
1541872390394171,0,4,-2,0,-5,1,4,0
1541872390394171,0,5,-2,1,-3,-1,-11,1
1541872390406214,1,1,-1,-4,-4,-4,1,-2
1541872390406214,1,3,-4,-4,-2,-6,0,-4
1541872390415187,3,-1,0,-4,-5,7,-4,-3
1541872390415187,4,2,2,-1,-1,-13,-2,3
1541872390430187,1,2,1,0,4,5,2,-1
1541872390430187,0,1,-1,-3,-5,-4,-8,-2
1541872390431179,0,-1,-2,0,1,1,2,0
1541872390431179,-5,-3,-2,0,-2,5,-1,-3
1541872390452216,-2,5,-1,-3,0,-6,-3,1
1541872390452216,-2,-3,-2,-1,0,1,-2,-3
1541872390454218,-2,-2,5,0,-3,-4,3,0
1541872390454218,-7,-1,1,1,1,3,2,-1
1541872390466229,2,0,2,1,0,-2,-1,-1
1541872390466229,-3,-2,0,1,0,-2,6,0
1541872390475235,-2,-2,-2,-3,-3,-5,0,1
1541872390475235,1,-2,-1,0,2,0,-4,-1
1541872390489247,-1,-3,0,0,0,1,7,-1
1541872390489247,-2,-1,2,-1,-3,5,-5,3
1541872390491239,0,-3,-1,-1,1,-3,-2,-3
1541872390491239,1,1,1,-4,-2,3,4,0
1541872390512301,-1,1,-2,-2,-1,0,-8,-1
1541872390512301,3,-1,-1,3,-2,-1,1,2
1541872390514303,0,-1,-1,0,0,0,11,4
1541872390514303,-2,-2,-3,0,-1,2,-5,-3
1541872390526301,0,0,-2,2,1,5,-4,-2
1541872390526301,-3,-8,1,1,-3,-13,-7,-3
1541872390535286,-2,-3,2,-2,-1,6,11,1
1541872390535286,3,2,5,-2,2,-1,4,1
1541872390549280,-3,0,6,2,-1,0,-6,-2
1541872390549280,0,0,-6,-2,-1,4,0,-5
1541872390551279,-1,1,0,2,1,-5,-8,1
1541872390551279,1,2,3,-2,-1,-2,3,-19
1541872390571350,-2,3,-1,1,-3,-1,-8,1
1541872390571350,-2,0,-1,-3,2,3,-1,-3
1541872390580323,1,0,-3,-3,-2,-5,-1,-4
1541872390580323,0,1,-4,-2,-2,-1,-6,4
1541872390586318,2,1,-5,-1,-3,-4,4,-2
1541872390586318,-1,-1,-11,-3,-2,-2,-3,-1
1541872390595321,-1,-3,-6,3,1,4,-4,1
1541872390595321,1,1,-4,-2,-1,1,1,3
1541872390609346,-2,-6,1,-1,-2,-3,-1,1
1541872390609346,2,-1,-1,0,-3,-1,0,1
1541872390611338,-3,-4,1,1,1,-3,-2,-1
1541872390611338,-4,0,-2,-1,-1,0,-10,2
1541872390632365,4,6,3,2,3,-2,6,0
1541872390632365,-5,-3,4,-3,-2,1,-1,3
1541872390634362,0,5,3,-2,-1,-1,7,-4
1541872390634362,-3,0,6,2,-2,-3,-16,-2
1541872390646374,0,2,4,0,3,7,2,1
1541872390646374,-2,-7,5,-1,-3,-8,5,2
1541872390655378,1,4,2,-3,-1,2,1,-3
1541872390655378,-1,-2,1,-5,-2,0,6,4
1541872390669396,-6,-1,0,-2,-2,-3,-11,-12
1541872390669396,5,-2,3,4,3,4,1,0
1541872390671378,-4,-4,-3,0,-3,-5,-4,-1
1541872390671378,-1,-6,-1,1,-3,-1,1,1
1541872390692415,-1,-7,-7,-1,0,2,2,3
1541872390692415,-4,0,-15,-3,-2,-2,1,-6
1541872390693415,-1,-13,-2,2,0,0,-4,-1
1541872390693415,-2,-6,-4,0,-2,1,5,1
1541872390705425,-6,-9,0,1,1,-5,1,-1
1541872390705425,0,2,1,-2,-1,-3,0,-1
1541872390715420,0,5,-1,1,-2,-1,-5,2
1541872390715420,-3,2,-11,-3,-6,-1,0,-2
1541872390729445,4,1,-8,-6,0,-2,1,0
1541872390729445,3,5,3,-3,-2,0,8,0
1541872390731430,-3,-2,2,-2,-1,-3,-16,-4
1541872390731430,3,2,7,0,1,2,17,2
1541872390752501,-3,1,-2,-3,-5,-3,-6,4
1541872390752501,-2,-5,7,0,-1,3,1,0
1541872390754468,-1,0,-1,-2,-1,-2,0,-1
1541872390754468,-4,-2,-5,0,2,-1,-1,-1
1541872390765510,-2,-2,-1,-3,-2,-4,-1,1
1541872390765510,5,0,-3,2,2,-1,-8,-3
1541872390774464,-4,-4,-3,-2,-3,3,8,0
1541872390774464,1,-1,-2,-3,0,-2,-5,-2
1541872390789530,-3,1,2,3,0,-2,-2,-2
1541872390789530,-3,-1,11,1,1,3,-5,1
1541872390791492,0,4,4,-3,1,-1,-4,-3
1541872390791492,-1,-2,0,-2,-3,-2,4,0
1541872390812549,2,-4,0,-1,-1,11,-2,-2
1541872390812549,-1,-7,-8,-5,0,-12,2,2
1541872390813507,1,-10,-9,-4,-3,2,-2,-1
1541872390813507,0,-4,-6,1,-2,1,1,-3
1541872390825523,-1,4,-7,-2,-1,-2,2,5
1541872390825523,-3,5,-10,0,-4,3,1,-8
1541872390834532,1,10,-9,-2,2,1,-4,-3
1541872390834532,-3,2,-5,4,-1,-5,0,1
1541872390849544,0,3,2,2,2,-2,1,4
1541872390849544,-1,-3,6,-2,0,-1,-10,3
1541872390851545,-5,-6,6,-1,1,-4,11,1
1541872390851545,-3,0,10,-1,-1,2,-20,-6
1541872390872563,3,-1,5,3,0,-3,8,-2
1541872390872563,1,1,4,-1,1,2,-2,1
1541872390873545,0,1,2,-2,-3,-1,2,4
1541872390873545,0,-1,-1,-1,5,1,14,4
1541872390885573,-1,-4,5,-2,-4,-3,-12,-11
1541872390885573,1,-3,-6,2,0,0,2,-1
1541872390894567,1,7,1,-1,-2,-1,-9,4
1541872390894567,1,1,10,-2,-1,-3,-1,0
1541872390909594,-4,0,6,0,-3,-2,-2,-1
1541872390909594,-1,3,4,0,0,0,8,-2
1541872390911596,0,-1,3,1,0,-1,-7,-7
1541872390911596,0,4,1,0,1,1,-3,-3
1541872390932612,-2,-3,-22,-2,-1,0,7,0
1541872390932612,-2,1,-26,-2,1,-1,-12,0
1541872390933596,-1,-1,-25,0,-7,-5,3,0
1541872390933596,2,-4,-18,-4,4,-3,-6,-1
1541872390945624,0,-14,-4,-3,0,7,8,5
1541872390945624,-2,-5,5,0,-7,-14,3,1
1541872390954612,-2,-4,13,0,-1,2,-11,-3
1541872390954612,-1,5,8,3,1,-4,1,-3
1541872390969643,1,8,9,0,-1,0,-15,-1
1541872390969643,-4,-4,4,1,0,6,11,7
1541872390971645,-2,0,6,0,0,2,-4,-1
1541872390971645,-1,-3,2,1,-1,-1,5,-4
1541872390992662,1,5,0,2,-2,-2,-5,-5
1541872390992662,0,7,5,-1,-2,0,-1,-8
1541872390993659,-1,-4,3,-1,2,-3,2,-5
1541872390993659,-2,-3,0,-2,-4,-3,-2,0
1541872391005675,0,-3,-6,-6,0,-4,4,-3
1541872391005675,1,-2,-12,-1,-2,1,-4,-2
1541872391014678,-3,-1,-13,-3,1,-1,3,1
1541872391014678,0,-3,-8,3,1,0,-7,1
1541872391028675,-1,-5,8,1,-2,-3,0,7
1541872391028675,-2,-2,-1,-1,3,0,-3,-7
1541872391035697,2,0,-1,-1,1,-4,3,2
1541872391035697,2,-4,-8,-2,-2,2,-6,4
1541872391052705,-3,-3,-3,1,1,-1,5,17
1541872391052705,-1,-3,8,-3,-3,3,-1,6
1541872391053702,0,2,5,0,3,0,7,-7
1541872391053702,0,1,6,-2,-5,-4,-6,-16
1541872391065722,-1,-4,-4,3,-2,-2,1,-23
1541872391065722,-2,-5,-1,-1,0,-2,2,-10
1541872391074720,-3,-8,2,0,0,0,-3,-4
1541872391074720,2,5,-1,-1,-1,-1,18,5
1541872391088736,2,7,2,-1,3,0,-9,-1
1541872391088736,-1,6,1,0,-1,1,-3,5
1541872391095783,0,8,1,0,-3,-1,-3,3
1541872391095783,-2,4,-5,0,1,3,3,7
1541872391112751,-1,0,-12,-4,-4,-3,1,0
1541872391112751,0,-6,-4,-2,0,-4,-1,0
1541872391113752,-1,-9,-6,-1,-3,-1,-4,2
1541872391113752,-1,5,-8,-1,0,2,-1,2
1541872391125772,-2,-10,-8,1,-2,1,-4,-1
1541872391125772,-4,-5,0,-1,0,2,1,-1
1541872391134770,-3,1,12,0,-2,-1,2,2
1541872391134770,0,-8,7,0,-1,-4,-3,5
1541872391148826,-2,2,0,-2,-1,-2,0,-5
1541872391148826,-1,-4,1,0,1,1,-1,-14
1541872391155798,0,0,0,0,-4,0,4,-16
1541872391155798,-2,-1,3,-3,-1,-2,-10,0
1541872391171810,1,3,-2,0,-1,-1,7,0
1541872391171810,-4,1,-2,0,-1,-3,-4,-18
1541872391173792,1,-1,-5,0,1,0,3,-35
1541872391173792,1,-4,-5,-2,-4,0,-3,-24
1541872391185821,2,5,-1,3,1,-1,-8,2
1541872391185821,-3,-1,2,-3,-2,-2,2,9
1541872391194810,5,-3,1,-2,-2,-1,-6,8
1541872391194810,0,-2,-1,-1,-1,1,1,8
1541872391208840,-1,1,2,-3,0,-2,0,6
1541872391208840,0,3,-2,0,-5,0,-1,13
1541872391215841,-2,0,3,0,-1,-2,-3,16
1541872391215841,-2,2,4,0,0,-1,3,10
1541872391231894,-5,-3,-2,-2,-3,-3,-2,8
1541872391231894,0,0,4,1,1,0,-4,8
1541872391233842,-1,1,2,-5,1,-1,0,11
1541872391233842,-2,-11,0,0,0,0,-4,9
1541872391261875,-2,-11,-4,0,0,1,7,0
1541872391261875,0,1,-7,0,-1,-2,-4,6
1541872391263876,-1,-4,0,2,2,1,4,12
1541872391263876,-4,-5,2,-4,-1,-2,-2,29
1541872391268890,-1,5,4,-1,-3,1,6,-9
1541872391268890,2,1,-3,2,3,2,0,-49
1541872391275895,2,3,-12,-3,-1,-3,-5,-49
1541872391275895,-6,-9,-2,2,-2,-1,1,-41
1541872391291908,0,6,13,2,0,-2,-4,-4
1541872391291908,3,7,17,0,-1,0,0,16
1541872391293901,-6,-7,-4,2,-2,0,4,21
1541872391293901,2,8,10,-1,-1,1,-6,5
1541872391314927,-1,-17,-3,-1,-1,0,-2,-2
1541872391314927,0,6,-3,-8,-2,-1,2,0
1541872391316916,1,15,5,0,1,0,6,1
1541872391316916,-2,10,-26,-2,-2,-1,1,4
1541872391328940,-2,2,-8,-5,1,-2,-4,4
1541872391328940,-1,0,-10,-1,2,-3,-2,12
1541872391335946,-5,-15,-15,-1,-1,-1,-3,13
1541872391335946,2,-8,-5,-1,0,-2,-3,5
1541872391351959,0,-12,-1,-1,0,0,-2,3
1541872391351959,-1,-10,-16,1,3,-1,1,10
1541872391353951,1,0,2,-1,-1,0,-2,8
1541872391353951,3,-7,8,1,2,3,-1,-4
1541872391374977,2,-3,-12,3,-1,0,2,-8
1541872391374977,-4,-2,3,-2,0,-3,-2,-3
1541872391375977,0,2,4,-3,-5,-2,-5,1
1541872391375977,-1,-1,3,-1,1,0,-1,19
1541872391387988,-1,2,-3,-1,0,0,8,25
1541872391387988,-1,7,-3,0,-2,-1,-10,-2
1541872391396995,3,19,-5,-1,-2,-1,4,-26
1541872391396995,0,10,-4,-2,-2,-3,-1,-45
1541872391412008,1,9,-9,-2,0,-3,-6,-46
1541872391412008,0,-18,0,0,1,0,4,-22
1541872391413990,-2,-27,-5,-2,1,-1,-3,0
1541872391413990,-1,-9,-2,-1,-2,-3,-3,12
1541872391435026,1,-1,-15,-1,-2,0,2,20
1541872391435026,-3,-3,-1,0,-2,0,1,20
1541872391436027,0,-8,11,0,1,0,-1,20
1541872391436027,1,-14,6,-1,-2,-1,5,13
1541872391448037,-1,3,5,-2,-3,0,-4,13
1541872391448037,0,6,4,-1,-2,1,0,5
1541872391457045,-2,7,1,1,0,-3,-3,2
1541872391457045,-3,13,4,2,-1,1,-3,1
1541872391472057,-1,17,3,-2,-2,-1,-4,-3
1541872391472057,3,26,0,1,-2,0,2,3
1541872391474040,-2,18,-7,0,-1,-1,0,0
1541872391474040,2,8,-6,-4,-1,1,0,-4
1541872391495076,-3,-21,-4,-2,-2,-1,2,-4
1541872391495076,-5,-29,0,-2,1,0,2,1
1541872391496074,1,-26,3,-2,0,1,-1,-3
1541872391496074,-2,-1,8,2,0,-1,2,-3
1541872391508087,0,-5,7,-1,-3,-3,-4,-2
1541872391508087,0,0,-4,1,2,3,-1,1
1541872391517088,1,2,-4,-1,-2,1,0,1
1541872391517088,1,-2,-3,-4,0,3,0,-3
1541872391532107,-3,-1,4,1,-1,0,-2,-3
1541872391532107,1,-12,8,3,-4,-5,-1,-5
1541872391534108,-3,9,15,-2,1,-2,-3,-1
1541872391534108,0,24,2,0,-2,-3,1,-4
1541872391555126,-1,4,0,0,0,-2,-12,-4
1541872391555126,0,2,-1,2,-3,-1,6,0
1541872391556118,-2,-9,4,0,-1,1,0,0
1541872391556118,-1,-12,-5,-3,0,-2,0,-1
1541872391568137,-3,-7,1,-1,1,1,1,1
1541872391568137,-3,-10,-4,-2,3,1,-3,-1
1541872391577135,0,7,6,-1,-1,0,2,0
1541872391577135,-4,7,4,-1,1,0,7,-4
1541872391592152,1,-2,-3,2,0,-1,5,-3
1541872391592152,3,18,-2,-1,0,-2,1,0
1541872391594160,-3,-7,5,-1,-2,-2,14,2
1541872391594160,0,-13,1,1,0,-1,4,0
1541872391615177,0,0,-3,-3,-1,0,0,6
1541872391615177,-1,-9,3,-6,-6,-3,0,12
1541872391616157,0,6,-1,-2,-3,-2,-7,13
1541872391616157,-1,-1,-4,4,0,1,-1,-16
1541872391628186,-3,-1,2,-3,-1,-4,8,-32
1541872391628186,1,5,-6,0,0,1,10,-39
1541872391637174,-2,-3,-1,-6,-4,-1,16,-34
1541872391637174,-2,4,-8,0,0,0,-2,-21
1541872391652189,1,-20,-1,-4,1,-2,-14,-7
1541872391652189,-2,-3,1,1,0,1,-25,3
1541872391654208,0,5,2,2,-2,-3,-25,12
1541872391654208,0,11,2,0,0,-1,-10,19
1541872391675258,-2,14,-1,-2,1,0,-22,19
1541872391675258,1,12,0,3,-1,-3,0,19
1541872391676209,-1,-5,-1,1,-1,-1,-8,13
1541872391676209,-3,-4,-2,-4,-3,-2,-1,12
1541872391688234,0,-7,-2,-1,-4,1,1,8
1541872391688234,-1,-18,-3,-3,-1,1,1,5
1541872391697224,-4,-2,-1,-1,0,0,-3,0
1541872391697224,-2,-9,-2,-2,0,-1,2,0
1541872391712291,1,-11,-9,1,-2,-2,-3,2
1541872391712291,-4,7,1,-6,-2,-3,-5,-4
1541872391714256,0,-1,-3,1,0,1,-2,-7
1541872391714256,-1,-7,-1,-2,-1,1,-5,-3
1541872391735267,0,10,-5,-2,-1,-1,0,-3
1541872391735267,-3,19,0,3,-3,-2,0,0
1541872391736259,1,13,-9,-2,1,-3,4,-1
1541872391736259,-2,-13,-4,-3,0,-4,-7,1
1541872391748285,-1,-16,-6,0,1,-2,-4,-2
1541872391748285,0,-21,-8,0,0,1,-3,-3
1541872391757281,2,6,-3,-2,-1,0,-2,0
1541872391757281,0,12,-2,0,-1,-2,-2,0
1541872391772341,3,11,1,2,-2,-3,4,-1
1541872391772341,-1,1,3,-1,2,-2,1,-2
1541872391774323,-2,-15,4,-4,-2,0,3,-4
1541872391774323,-1,-3,8,-3,-1,-3,-4,-2
1541872391795331,-1,3,-1,1,0,-2,7,0
1541872391795331,-3,-8,2,-2,0,-3,3,-2
1541872391796307,-1,-8,6,3,0,0,0,-2
1541872391796307,-4,-4,1,1,0,1,2,-3
1541872391808369,-1,15,4,-3,2,-1,2,0
1541872391808369,-2,11,0,-4,-1,0,-2,-3
1541872391817332,0,0,1,1,0,3,2,-3
1541872391817332,2,6,-5,0,-2,1,7,0
1541872391832353,-1,6,-3,1,1,0,9,-1
1541872391832353,-3,2,-4,-2,-3,-2,4,-1
1541872391834355,-3,-4,0,-1,-2,0,-1,-3
1541872391834355,0,-3,-4,-1,-2,0,1,2
1541872391854372,1,4,-3,-1,0,0,6,0
1541872391854372,2,-3,3,0,1,0,1,0
1541872391856354,-1,3,6,-1,-3,-3,-3,-1
1541872391856354,-1,-2,-1,-2,-3,-2,0,1
1541872391868374,-2,1,-4,-2,2,1,-3,-1
1541872391868374,-2,-3,-1,0,-2,1,0,0
1541872391877371,0,2,-1,-3,0,-1,-1,-1
1541872391877371,2,-5,-4,-1,-1,-1,-5,-4
1541872391892403,-1,0,-6,-1,-4,0,-2,-2
1541872391892403,0,0,-8,0,0,-1,-4,-1
1541872391894406,-1,-3,1,-4,-1,-3,0,1
1541872391894406,-3,-4,-3,-1,-1,0,0,-2
1541872391914421,-2,0,-3,-3,0,0,0,-1
1541872391914421,1,0,0,1,-1,0,0,-3
1541872391916404,1,-3,-1,0,0,2,-2,0
1541872391916404,2,0,1,-1,1,1,-1,-2
1541872391928469,0,-2,-1,1,0,-1,-1,-1
1541872391928469,-1,-4,6,-1,-2,2,0,-1
1541872391937436,-2,-1,3,1,-1,-1,-1,-1
1541872391937436,-1,0,10,-2,-2,-2,0,-1
1541872391952452,-1,-3,12,1,0,-1,0,0
1541872391952452,0,0,2,-1,-1,-1,-1,0
1541872391954456,0,-5,-4,3,-1,1,0,-3
1541872391954456,0,-1,-6,0,-1,-1,0,2
1541872391974471,-3,1,-6,-2,-4,0,0,-3
1541872391974471,0,2,-7,1,0,-1,2,2
1541872391976463,1,-2,-5,1,-1,0,-1,0
1541872391976463,-1,1,-4,0,1,-1,-1,0
1541872391988482,0,-2,5,-2,-1,0,-2,0
1541872391988482,-3,-1,2,1,1,-1,1,-2
1541872391997480,-1,2,1,-1,-1,-2,-1,1
1541872391997480,1,-6,2,-1,-1,0,-1,0
1541872392012502,1,2,-2,-1,-4,-2,1,1
1541872392012502,0,-2,-2,-1,0,-2,-1,-1
1541872392014494,1,-2,0,1,0,0,0,0
1541872392014494,-2,1,-7,-3,0,1,-3,0
1541872392034556,1,-1,-7,-1,0,0,1,-2
1541872392034556,0,-2,-1,-3,-1,1,-2,0
1541872392036504,0,2,-3,-2,2,-3,2,-1
1541872392036504,1,-1,-4,-1,-3,-2,-1,0
1541872392048568,-1,-2,0,1,-1,1,1,-1
1541872392048568,-3,-3,-1,-2,-3,1,-1,-2
1541872392057521,-3,-3,3,-3,-1,-1,-3,0
1541872392057521,-5,-2,5,0,0,-1,0,-2
1541872392072588,0,0,4,2,-1,-1,-1,1
1541872392072588,3,-1,-7,-3,-2,-3,-2,0
1541872392074577,0,-1,-9,0,-3,-2,-1,0
1541872392074577,1,0,-5,1,-1,1,-2,-3
1541872392094570,-2,-4,0,-1,0,-1,-3,-1
1541872392094570,0,2,-2,-3,1,0,-1,-2
1541872392096562,-1,-2,-6,0,0,-2,-3,-2
1541872392096562,1,-2,-3,-2,-1,-1,1,-3
1541872392108582,0,1,-7,-2,-1,-1,-2,-2
1541872392108582,-2,-2,-3,0,0,2,-3,1
1541872392117579,-2,1,5,-1,-2,-1,1,-1
1541872392117579,-2,2,2,1,2,-1,-1,-3
1541872392132637,1,-2,-5,0,2,-3,1,-2
1541872392132637,-1,-1,-3,1,0,1,-1,-2
1541872392133639,1,-1,3,-3,1,2,0,-2
1541872392133639,1,-5,2,-3,1,-1,-2,1
1541872392154620,-3,0,-1,1,1,0,-1,0
1541872392154620,-1,-3,6,-2,1,-1,1,0
1541872392156602,-5,-2,-1,-1,-3,-2,1,-1
1541872392156602,-4,-8,4,-3,-4,-3,-1,0
1541872392177638,-2,-1,1,-2,-2,0,-2,0
1541872392177638,2,-1,-1,1,1,-1,-1,-1
1541872392178633,2,1,3,2,0,2,1,-3
1541872392178633,-1,0,-2,1,-2,-2,0,0
1541872392192652,-2,0,10,0,-2,-3,-2,0
1541872392192652,0,-3,-1,-5,-2,-1,1,0
1541872392193645,-1,0,5,-1,-1,0,0,0
1541872392193645,0,1,-1,-1,0,0,-2,-1
1541872392214670,0,-2,1,-2,0,-2,-4,-2
1541872392214670,-1,4,0,0,0,-1,-2,0
1541872392216671,-2,-3,-7,-4,0,-2,0,0
1541872392216671,1,1,-6,-1,-1,-2,1,2
1541872392244696,-1,0,-7,-2,-1,0,1,0
1541872392244696,-2,0,2,1,-4,0,0,-1
1541872392246676,-3,3,1,0,0,2,-3,-2
1541872392246676,-2,1,-2,1,-3,-2,1,-3
1541872392252739,-1,-6,2,-3,2,1,0,0
1541872392252739,-1,-2,4,1,-1,-4,1,-1
1541872392253727,1,0,3,2,0,-3,0,0
1541872392253727,-1,1,2,-3,-2,-4,-3,-2
1541872392274720,0,0,1,0,0,-4,-1,-1
1541872392274720,0,-3,-3,-3,-2,-2,-1,-2
1541872392276722,0,-1,1,0,-2,-1,-2,0
1541872392276722,1,-1,3,1,1,1,1,-1
1541872392297736,0,0,-3,0,-3,0,3,-1
1541872392297736,-3,1,5,-2,0,-1,-3,-3
1541872392298726,0,-2,-4,-2,-2,0,-1,-2
1541872392298726,0,-1,-3,0,0,-1,-1,-1
1541872392311748,-2,-2,8,-3,-3,-2,-1,-1
1541872392311748,1,0,2,-2,-1,-2,-2,0
1541872392318754,1,-3,0,-2,-2,-3,0,0
1541872392318754,-2,-1,-2,-1,0,1,0,0
1541872392334768,0,-2,-4,1,0,2,-2,-2
1541872392334768,-3,-2,-4,0,0,0,0,-2
1541872392336770,1,-2,1,-1,-4,-2,-1,0
1541872392336770,1,0,-3,-2,-2,2,-1,1
1541872392357770,-1,-4,-9,-2,1,-5,-3,0
1541872392357770,-1,1,-5,0,1,1,0,0
1541872392358769,-2,-4,4,-3,-2,1,-1,-1
1541872392358769,-3,-2,0,0,0,0,-2,-3
1541872392371798,0,0,-2,0,-1,0,1,0
1541872392371798,1,0,2,-1,1,-2,-2,-1
1541872392378804,-1,0,-1,0,2,-1,1,-2
1541872392378804,-1,-2,-2,1,-4,0,-1,-2
1541872392394817,-6,-1,-8,-1,-3,-1,0,0
1541872392394817,-1,-2,-2,0,-3,-3,1,-2
1541872392396818,0,2,1,0,-1,-1,0,-1
1541872392396818,-1,-2,0,-2,-1,-2,2,-1
1541872392417871,0,0,-3,0,-1,0,-2,0
1541872392417871,-1,4,-5,-1,-1,1,1,1
1541872392418821,-2,-1,0,-1,0,1,-2,0
1541872392418821,-4,-2,-6,-2,-3,-2,0,-4
1541872392431847,3,0,0,2,-1,1,-3,-2
1541872392431847,-2,-2,1,-2,-3,-3,1,-1
1541872392438853,1,-2,-8,2,1,1,-1,-3
1541872392438853,2,-1,-4,0,2,1,-3,1
1541872392454866,-4,-1,2,0,4,1,1,0
1541872392454866,0,-2,0,2,-4,6,-3,0
1541872392456868,-2,-2,0,-3,-3,-14,1,-2
1541872392456868,1,-1,-2,-1,-5,1,-4,-1
1541872392477876,1,1,-9,0,2,-1,-1,-1
1541872392477876,1,-5,-6,0,1,1,-3,0
1541872392478866,0,-1,-4,2,1,1,-1,-1
1541872392478866,0,-3,-3,-2,-4,-5,0,1
1541872392490887,1,0,-9,-4,1,-3,0,1
1541872392490887,0,0,-3,1,0,0,-3,-2
1541872392499885,-1,-1,2,-1,3,4,-1,2
1541872392499885,0,-1,5,-1,0,-1,-1,-2
1541872392514952,-1,0,7,1,-3,2,0,-3
1541872392514952,-2,-3,0,-4,-4,-7,-1,0
1541872392516954,-4,-1,2,-6,-1,-4,-3,-1
1541872392516954,0,0,-3,3,-1,0,-2,0
1541872392537926,-1,1,-8,-6,-2,7,-3,1
1541872392537926,-1,-3,0,0,2,-11,-1,0
1541872392538918,0,0,-3,0,-2,3,-1,-2
1541872392538918,-1,-3,3,-1,2,2,3,1
1541872392550981,1,3,9,1,-1,7,4,0
1541872392550981,-1,-2,2,-2,-9,-17,-10,-2
1541872392559936,1,0,2,2,3,6,12,2
1541872392559936,-1,1,12,-1,3,4,-21,-3
1541872392575002,-1,-1,4,-1,-3,-8,-5,-2
1541872392575002,1,0,5,1,5,9,5,2
1541872392577005,-5,-5,3,1,-12,0,-8,0
1541872392577005,-2,1,3,-1,26,0,8,0
1541872392596984,-3,-8,7,-5,-18,-12,3,-2
1541872392596984,2,-1,-2,-7,-8,11,1,-2
1541872392598977,1,0,-11,-1,-3,-18,-2,3
1541872392598977,1,6,-5,4,-1,16,5,-2
1541872392610995,-2,-3,-2,-2,21,-7,-4,-2
1541872392610995,-3,-2,-2,-1,-8,0,7,-2
1541872392619983,1,1,-2,-4,-5,5,-2,-4
1541872392619983,-1,-3,-1,1,3,-5,1,1
1541872392635015,4,2,-13,4,-5,0,0,-2
1541872392635015,-3,2,-8,1,1,5,2,-1
1541872392637017,-1,-4,-7,-3,4,-4,-7,-3
1541872392637017,-1,1,-12,-2,-9,-5,4,8
1541872392657033,-1,-2,0,0,-3,0,-3,-8
1541872392657033,-1,0,0,-2,5,-2,-6,0
1541872392659026,1,-1,-1,-3,-2,3,13,2
1541872392659026,0,0,4,-2,-1,-8,-8,-9
1541872392671045,1,0,7,0,-3,-6,1,2
1541872392671045,-2,-1,7,-2,-2,-1,1,9
1541872392680043,-2,0,6,-5,-11,-2,-10,-11
1541872392680043,2,1,-1,5,23,15,10,9
1541872392694064,-2,0,-4,1,-7,0,-10,-1
1541872392694064,-2,-1,-5,-2,0,-1,-4,-3
1541872392701070,-2,-1,5,1,-2,-13,1,2
1541872392701070,-2,-2,-6,-7,-16,1,0,-8
1541872392717083,0,3,-3,-3,-1,2,6,3
1541872392717083,-4,-4,-1,1,9,-4,-3,-3
1541872392719075,-2,0,3,3,4,6,0,1
1541872392719075,-2,0,-3,1,-10,-4,-4,-4
1541872392731095,-1,-3,-1,-1,4,-2,-2,3
1541872392731095,1,0,-7,0,-10,11,2,-6
1541872392740092,0,0,2,-1,6,-8,2,8
1541872392740092,1,0,-3,-1,-3,-6,-7,0
1541872392755114,-2,0,0,-1,0,10,4,-1
1541872392755114,4,1,2,4,3,-3,2,-1
1541872392756116,0,-2,-1,-5,-1,5,-4,-1
1541872392756116,-3,-6,4,-10,-15,-7,-10,2
1541872392777115,-1,1,5,2,6,1,-4,-2
1541872392777115,1,2,-4,1,1,-3,-5,-1
1541872392779115,-3,-1,-3,-1,0,-3,-18,-8
1541872392779115,-2,0,-4,0,-6,-5,12,-7
1541872392800187,-2,-3,-9,-5,-4,2,-6,14
1541872392800187,-3,1,-2,3,4,-3,7,-3
1541872392801153,-2,-5,-8,5,-3,2,-2,-31
1541872392801153,-2,-2,-6,-2,-3,-15,-6,-4
1541872392815164,-2,0,2,0,-2,0,4,-1
1541872392815164,0,1,7,0,4,3,-2,0
1541872392816165,-1,-2,3,2,6,11,5,12
1541872392816165,0,0,10,-1,-12,-12,-5,-3
1541872392838183,1,1,-4,-1,-1,4,3,-4
1541872392838183,-3,-2,13,-4,-4,-2,-1,3
1541872392839183,3,3,-7,4,-9,2,-3,2
1541872392839183,2,-2,1,4,32,26,12,7
1541872392851194,-3,1,0,2,-7,-10,-18,-3
1541872392851194,-1,-2,-3,-4,-13,-1,-2,-2
1541872392860181,-1,0,-4,-5,-5,-10,6,4
1541872392860181,-1,2,-11,-2,-10,-7,2,14
1541872392874214,0,1,-11,2,12,6,2,-4
1541872392874214,4,1,-23,-4,3,-4,-7,35
1541872392881220,2,2,-5,-2,-6,1,-6,15
1541872392881220,2,-1,-10,3,-1,2,1,-1
1541872392897232,3,0,0,-2,6,11,4,9
1541872392897232,-3,-3,5,2,-6,-18,4,-5
1541872392899233,0,1,2,-3,1,6,-5,-6
1541872392899233,1,-1,10,2,-6,-1,-14,2
1541872392911279,1,-2,-3,-4,3,-4,1,12
1541872392911279,0,3,2,1,4,6,-2,-9
1541872392920250,-2,-4,0,3,1,2,5,-9
1541872392920250,-1,-1,1,-1,4,4,0,-13
1541872392934261,0,-3,-3,-2,-13,-16,10,-1
1541872392934261,-3,-1,0,-7,-9,-9,-9,-9
1541872392941267,-2,-1,5,0,9,3,-1,-5
1541872392941267,-1,-3,-8,1,3,1,1,5
1541872392957280,-1,0,-8,-3,-13,1,1,7
1541872392957280,-3,-1,-3,-3,2,14,-8,-30
1541872392959281,-1,2,-7,1,10,-12,7,-10
1541872392959281,-1,0,-2,-5,-12,-2,-3,-24
1541872392971292,-1,-2,1,0,3,2,-7,-15
1541872392971292,-1,-4,-4,0,0,-7,4,8
1541872392980299,-3,-1,-2,-4,-8,-1,4,8
1541872392980299,-1,-1,1,-2,-1,-4,4,-6
1541872392994347,-2,-1,6,4,9,5,-11,-19
1541872392994347,1,-1,2,0,-7,-5,7,13
1541872393001352,-3,-1,-1,3,11,3,5,13
1541872393001352,-1,-1,-1,-5,4,-4,1,2
1541872393017331,2,-2,0,2,-1,-4,0,10
1541872393017331,-7,-3,-2,-2,1,9,6,-16
1541872393019332,-3,2,5,-3,-8,-16,-14,1
1541872393019332,-1,1,-1,-1,-4,5,6,9
1541872393031378,2,-2,-5,0,2,1,0,4
1541872393031378,0,-1,-6,-2,14,4,-7,-5
1541872393040335,1,-2,-5,0,-15,-1,4,3
1541872393040335,-2,2,5,1,7,1,-1,-3
1541872393054396,-5,2,3,-1,-9,-6,-1,-10
1541872393054396,0,-2,9,-1,-2,-3,7,3
1541872393061366,-3,-2,3,-5,-3,-2,-12,-4
1541872393061366,1,-3,0,2,-1,-3,4,1
1541872393077380,-1,2,-3,1,-4,-3,-3,0
1541872393077380,-1,3,-3,1,13,4,1,-2
1541872393079362,5,2,-11,-2,-3,5,2,1
1541872393079362,0,-1,-2,-4,-7,-13,-9,2
1541872393100440,-3,-4,-1,-6,-1,-13,-9,-6
1541872393100440,1,-2,0,0,-3,9,12,-8
1541872393101395,-1,-3,5,2,-1,15,-3,3
1541872393101395,-3,-6,-2,0,0,0,-2,-7
1541872393114447,-1,-1,-1,-4,-6,1,-2,4
1541872393114447,-2,0,0,-1,-10,-7,-14,1
1541872393121416,-1,-2,4,-3,7,-6,-5,-1
1541872393121416,-2,3,-1,4,3,-11,-16,2
1541872393137429,0,0,1,4,12,13,18,0
1541872393137429,-5,-8,1,-4,-14,1,-22,2
1541872393139427,0,-1,-1,1,-10,-5,19,-21
1541872393139427,-4,0,-6,-4,12,49,-21,-33
1541872393160441,-2,-3,-4,-3,-14,-54,8,-4
1541872393160441,3,4,-9,2,17,1,-4,0
1541872393161439,0,-1,-5,0,4,-12,9,-1
1541872393161439,-3,-3,11,3,0,7,-4,9
1541872393174460,-6,-5,6,-8,-7,11,-1,-7
1541872393174460,3,1,0,-2,-3,8,4,-5
1541872393181447,0,1,5,-2,3,-7,-4,10
1541872393181447,-1,0,-4,-1,-8,-7,17,7
1541872393197513,1,0,2,0,0,17,-12,2
1541872393197513,-2,-2,6,3,-8,-27,-1,7
1541872393199495,-3,-6,5,-2,6,3,5,-7
1541872393199495,-2,0,4,-3,-1,-10,0,0
1541872393220511,0,3,0,0,-5,-1,6,-4
1541872393220511,1,0,-2,2,3,2,-12,5
1541872393221481,1,3,-3,6,7,7,-6,2
1541872393221481,2,-3,-8,-1,5,13,18,1
1541872393233489,-3,-2,-1,-2,-15,-23,-27,-5
1541872393233489,3,3,4,0,9,4,13,24
1541872393243516,-4,2,6,-2,-1,5,2,-51
1541872393243516,1,-1,3,-3,-11,-14,-1,10
1541872393256509,1,-2,-6,4,16,14,-5,6
1541872393256509,0,-1,-4,-3,-7,-15,7,-6
1541872393257522,1,0,-5,2,-7,-10,-11,13
1541872393257522,1,3,-3,-1,9,0,22,-2
1541872393279547,-2,2,1,-1,0,-12,-6,-3
1541872393279547,-2,1,3,-2,-7,27,2,-6
1541872393280547,0,-7,1,-2,-1,-18,-14,14
1541872393280547,0,-1,-1,1,-5,-4,-15,-2
1541872393302565,-2,-1,-1,3,10,13,18,6
1541872393302565,-2,-3,-6,-3,-11,-6,-7,-4
1541872393303566,0,1,-9,-7,-2,16,7,5
1541872393303566,0,1,-1,1,-5,-14,-21,8
1541872393316576,2,1,-3,-5,-4,15,13,-6
1541872393316576,0,1,-5,1,2,-17,1,-6
1541872393317557,-5,-1,5,0,-4,0,-8,3
1541872393317557,2,-3,0,-3,-10,15,-3,4
1541872393339576,3,3,-2,3,17,-51,8,-1
1541872393339576,-2,0,-3,-4,-11,36,15,-4
1541872393340593,0,2,1,4,7,-21,-35,11
1541872393340593,-6,-5,-8,2,7,-21,26,-1
1541872393353607,0,0,5,-6,-20,43,-6,-2
1541872393353607,-5,-6,2,-2,-46,-45,-20,2
1541872393361613,3,3,0,1,63,-52,22,10
1541872393361613,-2,-1,3,1,-17,65,-5,1
1541872393376626,0,-4,0,5,-1,5,9,5
1541872393376626,-4,-2,-1,-5,10,57,4,-3
1541872393377615,-4,-1,-4,-6,-3,-18,15,-6
1541872393377615,-2,0,1,1,16,-43,-31,-2
1541872393399681,-1,-3,-2,-5,-8,12,7,2
1541872393399681,2,-3,-1,1,-7,4,-2,1
1541872393400643,0,0,-5,-2,-6,-9,-6,-4
1541872393400643,-3,2,-3,0,2,-10,-2,1
1541872393413657,1,-1,-1,0,-9,14,-14,-5
1541872393413657,3,8,0,7,22,-20,14,-1
1541872393421699,-2,-9,-1,-1,-15,16,-27,-2
1541872393421699,1,3,0,-4,-14,0,18,-6
1541872393436676,1,-2,2,-2,1,-4,-12,-1
1541872393436676,0,0,-2,-2,11,-12,6,0
1541872393437676,-1,-5,-1,1,-4,27,18,-1
1541872393437676,0,3,-3,-2,-7,5,-2,-2
1541872393459694,-2,1,2,1,10,-46,8,-2
1541872393459694,2,-3,-2,2,22,7,-3,-2
1541872393459694,-2,0,2,3,-10,36,3,1
1541872393459694,0,-2,-2,-5,-6,-7,-1,5
1541872393473707,0,-2,-3,-2,2,-11,2,-3
1541872393473707,-2,-4,-1,-1,3,-8,2,-6
1541872393481713,2,4,3,4,-5,6,-5,4
1541872393481713,-1,-2,0,1,1,-6,14,3
1541872393496728,0,2,0,3,6,20,-18,7
1541872393496728,-1,0,0,-5,-4,20,17,0
1541872393497727,0,2,5,1,-15,-29,0,-4
1541872393497727,-4,-1,3,1,4,7,-9,7
1541872393519745,0,0,-3,-1,-6,6,-12,-5
1541872393519745,-1,3,-3,4,5,-9,-10,-3
1541872393519745,0,1,-12,-1,0,13,7,2
1541872393519745,0,-6,-3,-4,-6,-19,-2,-3
1541872393542763,-6,-1,-5,-2,0,-2,10,-2
1541872393542763,0,-6,6,2,6,10,-6,-3
1541872393543763,0,-3,4,-8,-10,-5,7,-3
1541872393543763,1,1,5,0,0,-2,-6,-4
1541872393564780,-1,4,0,-2,3,8,2,-2
1541872393564780,3,-2,-3,-1,2,-14,1,2
1541872393565774,-3,-4,-1,3,-2,19,-1,-1
1541872393565774,-4,-6,-6,-1,0,2,-8,-7
1541872393579787,0,0,-6,0,-6,-2,10,3
1541872393579787,-3,1,-1,-2,-4,-19,-29,-3
1541872393579787,-2,-1,4,-2,-6,7,8,2
1541872393579787,-2,5,-1,-3,-1,-1,4,-11
1541872393593800,-3,-8,1,0,1,-14,-46,2
1541872393593800,0,5,-2,0,-6,-2,21,4
1541872393601846,-1,-2,-3,-4,1,1,-2,-7
1541872393601846,-1,4,1,-3,0,-7,-19,0
1541872393616824,-2,4,9,-5,-7,4,24,-4
1541872393616824,0,-4,2,1,1,-29,-8,1
1541872393617825,-1,-1,-9,0,-4,-15,-15,2
1541872393617825,1,3,-6,1,6,13,23,1
1541872393639827,-1,-2,-8,-3,-4,4,0,-7
1541872393639827,-2,-7,-7,-7,-14,9,-3,-5
1541872393639827,-1,-3,-7,-3,-4,-3,18,-1
1541872393639827,-4,-8,5,7,15,-4,13,1
1541872393653855,1,1,14,5,-4,11,0,2
1541872393653855,-3,-1,17,3,12,-5,4,-1
1541872393661861,2,2,5,-2,-3,11,-37,0
1541872393661861,0,0,-9,-4,-4,-15,-22,3
1541872393676873,-2,-4,-2,1,7,-19,10,-3
1541872393676873,1,-1,-9,3,7,35,43,0
1541872393677874,-2,-4,-1,0,0,7,-19,-1
1541872393677874,0,-5,4,-1,-7,-25,-4,-1
1541872393698892,1,0,-7,-2,5,19,-2,0
1541872393698892,-1,1,3,-8,-9,-14,-13,1
1541872393699872,-3,0,25,2,3,10,4,-7
1541872393699872,-1,-2,8,3,-1,8,14,0
1541872393713904,0,-2,9,-2,-8,-6,-4,0
1541872393713904,4,5,-18,0,-4,6,-9,1
1541872393721912,-1,1,-10,2,9,-9,7,3
1541872393721912,2,5,1,-3,-13,20,18,-3
1541872393736923,-4,1,-7,1,8,-17,-17,-5
1541872393736923,0,0,-5,-3,-6,7,-1,1
1541872393737923,1,7,-12,-1,0,3,-1,1
1541872393737923,-1,-1,-2,-2,-7,-10,-13,-4
1541872393758942,4,3,-12,-3,1,6,31,-2
1541872393758942,-2,-3,7,4,3,-2,-5,-8
1541872393759932,-2,-6,0,-3,0,11,14,2
1541872393759932,-2,-4,-2,-6,0,-14,-19,-2
1541872393773954,-1,2,1,-1,-4,1,-9,-2
1541872393773954,-1,-5,-1,-3,-6,1,-4,0
1541872393781943,1,1,-3,3,6,-12,16,-2
1541872393781943,0,0,-5,6,2,8,6,4
1541872393796972,0,-5,3,-5,-5,8,12,-2
1541872393796972,0,-6,2,4,-7,-14,-9,0
1541872393797973,-5,-5,13,-5,-9,1,-7,-2
1541872393797973,-1,-4,3,-2,-2,5,-2,0
1541872393819027,-3,-6,-1,0,3,-10,-5,1
1541872393819027,0,-9,-9,1,-3,4,-3,-1
1541872393819974,1,-4,-21,2,-1,-12,12,-1
1541872393819974,2,5,-17,0,8,-4,5,-3
1541872393834003,2,6,1,-1,-4,17,-12,-2
1541872393834003,1,-1,7,-4,-1,-19,-3,0
1541872393842009,-5,-4,2,1,-2,7,1,0
1541872393842009,1,-7,-9,0,7,10,4,2
1541872393857022,-1,-4,-9,2,-2,2,9,2
1541872393857022,1,3,-6,-2,0,0,-15,-6
1541872393858022,-1,2,14,-2,2,-6,-1,0
1541872393858022,-3,4,13,2,-4,6,11,0
1541872393879074,-1,-3,2,1,3,-9,-16,-2
1541872393879074,-2,4,1,0,-2,10,2,4
1541872393880036,2,4,-16,-2,-1,-14,-6,-1
1541872393880036,1,-8,0,0,3,5,14,-7
1541872393894052,0,-1,-5,-1,7,3,-4,1
1541872393894052,-1,3,-11,-1,0,1,-12,1
1541872393902060,2,-1,-13,-2,-2,2,-8,-2
1541872393902060,-2,-4,5,-7,-3,23,-19,1
1541872393917071,3,2,17,0,-2,-48,23,4
1541872393917071,-8,-6,8,1,8,7,-14,5
1541872393918072,-1,-3,-2,1,0,10,-9,3
1541872393918072,-1,6,-11,-2,-6,-2,1,7
1541872393939089,-3,-8,-5,0,-4,11,-9,6
1541872393939089,-3,-2,-2,-2,-1,-10,3,9
1541872393940070,1,-3,2,-3,-3,0,-4,16
1541872393940070,-3,7,1,0,0,1,4,17
1541872393954097,0,2,-8,1,-1,7,-5,24
1541872393954097,0,9,-3,0,-6,-9,8,8
1541872393962109,1,4,-8,-3,-1,0,-3,14
1541872393962109,-3,-3,3,4,5,-4,0,32
1541872393977120,-11,-8,4,2,-4,7,0,58
1541872393977120,3,3,15,0,5,1,-5,110
1541872393978121,-2,12,26,-1,-5,-4,8,69
1541872393978121,7,24,30,-7,-3,11,-11,-6
1541872393999139,3,12,16,0,-11,-1,14,-64
1541872393999139,-1,-25,-8,1,19,-13,-7,-89
1541872394000121,-7,-45,-24,4,0,15,22,-40
1541872394000121,-1,-25,-35,4,-1,-8,2,33
1541872394022158,-3,-2,-4,-1,-6,7,2,0
1541872394022158,-3,-5,7,-2,-7,-7,-2,-106
1541872394023140,-2,13,14,1,3,3,-14,-92
1541872394023140,-3,7,5,6,1,-5,-7,-116
1541872394037171,-3,0,0,-1,7,0,-9,-116
1541872394037171,18,19,5,-3,-9,-8,7,-88
1541872394038168,15,6,-1,-9,-1,-8,-3,-109
1541872394038168,10,-6,12,-7,-6,-12,-10,-50
1541872394059188,20,-12,1,-2,-1,-20,-5,15
1541872394059188,-7,-7,29,-2,-2,-2,1,32
1541872394060171,53,-1,13,2,0,7,-4,51
1541872394060171,13,-4,-3,-3,-1,-14,0,49
1541872394082208,-17,-10,17,0,0,13,1,52
1541872394082208,-28,1,40,8,2,6,-3,39
1541872394083200,-44,-4,35,15,-2,-6,24,79
1541872394083200,-24,-2,22,29,10,8,2,15
1541872394097220,-15,-14,-13,25,1,6,2,-13
1541872394097220,8,-8,-82,23,-5,-4,-3,-63
1541872394097220,39,-18,-113,10,-2,-8,1,-76
1541872394097220,16,10,1,-5,-2,-15,-14,-1
1541872394119240,1,8,80,9,0,7,0,32
1541872394119240,3,17,65,0,-4,0,-6,87
1541872394120220,100,-4,11,-3,1,22,-4,41
1541872394120220,118,6,-86,-14,1,-34,-4,67
1541872394142259,-77,28,-74,-28,-4,4,-7,111
1541872394142259,-107,-24,-16,-13,12,-3,10,117
1541872394143238,-128,-22,-31,-5,-3,15,-2,-79
1541872394143238,-73,-18,-7,-5,-9,5,-2,-78
1541872394149244,10,-15,-21,-2,7,-10,1,-79
1541872394149244,55,2,-1,-22,-12,17,-3,100
1541872394156305,-15,3,9,-25,1,-24,-12,127
1541872394156305,-14,-1,-1,-19,4,13,3,-84
1541872394171280,11,-5,-33,-12,-10,-4,2,-91
1541872394171280,-1,7,11,-6,-4,8,6,-58
1541872394178286,-14,13,27,12,5,17,-6,73
1541872394178286,-43,-4,-11,-14,-14,-15,3,65
1541872394187294,-11,-1,15,2,14,-6,-3,3
1541872394187294,21,5,-17,-6,-7,3,-4,-40
1541872394193298,20,6,18,-12,-7,-6,-9,-36
1541872394193298,11,-3,-3,9,2,-5,2,6
1541872394208294,30,7,-30,-5,-3,7,-2,-3
1541872394208294,24,-2,10,5,4,0,-24,42
1541872394216313,22,2,-35,10,4,-10,20,44
1541872394216313,8,-6,-20,6,-6,4,3,98
1541872394240338,14,-5,5,9,-3,-2,-2,-35
1541872394240338,-5,11,-22,3,-2,3,12,-35
1541872394241339,-69,-3,26,-4,-2,-9,3,-35
1541872394241339,-17,-12,14,-12,5,3,-4,7
1541872394262356,13,-10,15,-4,-3,1,-5,46
1541872394262356,-1,-10,-19,3,-1,-16,-5,3
1541872394263347,14,4,-6,1,-2,-16,-16,-18
1541872394263347,-27,-4,16,12,5,7,3,17
1541872394277364,-1,13,25,2,-5,-7,-15,64
1541872394277364,-5,0,-13,-4,4,17,17,55
1541872394277364,3,2,19,-5,-3,-25,-6,-22
1541872394277364,-10,2,6,4,2,12,-9,54
1541872394300387,-1,-9,-15,-8,-4,4,-1,12
1541872394300387,3,-5,0,8,2,3,2,5
1541872394300387,3,3,-5,1,-3,6,-4,-11
1541872394300387,-16,1,2,-6,-2,4,-10,-16
1541872394322405,-3,1,4,3,-2,-7,23,15
1541872394322405,3,3,-13,-2,-6,-2,11,-65
1541872394323397,15,0,11,0,4,4,-5,-35
1541872394323397,5,4,15,4,-3,-6,8,-78
1541872394337433,9,19,-2,13,-1,-2,-1,-37
1541872394337433,-2,-5,21,-14,-5,-15,-8,-24
1541872394337433,-8,6,-1,-4,0,6,-3,-36
1541872394337433,18,-16,6,-9,1,-11,-7,-10
1541872394360438,-1,-6,-14,0,0,-3,10,20
1541872394360438,6,5,-21,0,3,4,-7,8
1541872394360438,-13,3,1,-10,-6,-6,-9,36
1541872394360438,-17,5,9,0,7,14,1,42
1541872394382455,-12,-11,-14,-9,-3,-1,-5,29
1541872394382455,-9,-7,-13,16,4,17,16,-28
1541872394383437,1,-2,-9,-5,-5,-12,-4,9
1541872394383437,10,2,8,-11,-10,-1,-3,-50
1541872394396502,13,-5,0,6,11,-14,-8,-19
1541872394396502,-4,-8,9,2,0,9,0,27
1541872394397466,14,-11,24,12,1,9,3,11
1541872394397466,6,-2,34,18,-5,-9,5,-20
1541872394420522,11,-18,28,-3,1,11,-10,-18
1541872394420522,-5,-2,7,3,1,-10,-6,1
1541872394420522,-18,-1,-6,-1,-3,-5,0,45
1541872394420522,10,-3,0,1,-3,-2,12,30
1541872394442504,-6,0,-27,-5,3,0,-17,8
1541872394442504,12,4,-18,-9,-1,-20,-20,-40
1541872394443496,9,-3,-17,-15,1,7,10,-53
1541872394443496,8,2,-30,-6,-5,-6,-21,-90
1541872394456515,-8,0,-2,-1,2,3,-6,-59
1541872394456515,-4,4,3,-1,-1,7,-2,13
1541872394457507,-8,-2,-6,-2,-3,24,1,41
1541872394457507,-28,-15,-9,2,-2,-11,20,51
1541872394480536,-15,-3,7,1,-4,-3,6,-2
1541872394480536,-4,-3,9,0,-1,2,6,37
1541872394480536,-3,3,7,3,-1,-1,4,-18
1541872394480536,-16,12,3,-2,1,4,11,-25
1541872394502553,-2,1,3,-5,-2,-1,20,35
1541872394502553,8,-6,-6,-1,0,-3,12,20
1541872394503555,25,2,15,13,-3,-10,5,-39
1541872394503555,-13,7,0,-7,1,-3,-1,44
1541872394516566,-7,-9,1,6,1,-3,2,79
1541872394516566,1,-5,12,0,2,-9,2,15
1541872394517556,-10,-3,-12,0,-1,0,-17,-83
1541872394517556,21,-5,13,8,-8,2,-13,-98
1541872394540582,27,1,23,-3,-8,6,-10,-41
1541872394540582,-4,-1,-9,-5,5,-8,7,-25
1541872394540582,-3,-7,-17,-4,-1,-11,-3,90
1541872394540582,20,4,-16,-7,4,6,-4,123
1541872394562604,10,7,10,-2,1,0,10,62
1541872394562604,0,-16,2,-8,-4,8,-3,14
1541872394563605,-6,-5,-10,1,1,1,3,-30
1541872394563605,3,-12,-17,-4,1,1,0,-68
1541872394576614,20,-10,-6,8,2,11,7,-98
1541872394576614,-1,0,-5,-15,-2,-8,-35,-58
1541872394577596,-12,-9,5,-8,-1,3,9,-24
1541872394577596,-35,-1,-8,1,5,3,8,35
1541872394600630,-33,8,-3,-3,-10,-8,-10,-62
1541872394600630,-28,10,0,2,0,-5,-3,-68
1541872394600630,9,2,-1,3,-3,3,1,53
1541872394600630,-2,-6,9,-3,2,-3,-1,19
1541872394622653,-15,1,-2,-5,2,-9,0,34
1541872394622653,-3,1,2,7,-7,1,10,-20
1541872394623654,-5,5,2,1,-1,-40,1,-47
1541872394623654,15,-1,-23,-4,0,1,12,-28
1541872394636664,-10,-11,-10,-12,1,3,-5,33
1541872394636664,12,-2,-2,9,-1,-5,8,65
1541872394644671,-8,-17,10,-10,3,15,-5,38
1541872394644671,4,7,5,3,-3,-7,-8,1
1541872394659683,16,-10,-32,-8,-3,2,-3,62
1541872394659683,-5,-2,-21,-2,-3,10,-8,36
1541872394661666,-8,-10,-1,0,-5,-1,-7,47
1541872394661666,-28,-4,-3,5,0,3,13,36
1541872394682739,3,1,-2,-3,1,3,-10,19
1541872394682739,17,6,3,-8,-3,2,17,-20
1541872394684695,26,4,-9,-8,4,-3,-1,16
1541872394684695,-3,3,0,-4,-2,3,4,34
1541872394696714,-13,6,11,5,4,2,7,-30
1541872394696714,-9,-6,0,-1,-1,-4,-5,-22
1541872394705723,13,0,13,15,2,10,3,9
1541872394705723,7,6,11,1,-4,-4,-14,-27
1541872394719726,-2,7,-1,-9,-3,-8,-2,-14
1541872394719726,7,0,8,-9,8,-1,-20,-25
1541872394727720,-13,12,-8,-17,0,8,12,-48
1541872394727720,-19,-3,-14,-18,-7,-10,-12,-17
1541872394742752,-53,-8,-20,-10,5,6,5,-51
1541872394742752,-11,0,-13,-1,-10,1,3,-32
1541872394744742,11,5,-7,9,0,-11,-5,0
1541872394744742,37,3,4,9,0,7,2,-7
1541872394756801,33,13,10,9,1,-1,-6,6
1541872394756801,18,5,12,8,-4,-2,-4,30
1541872394765767,5,-6,14,8,0,-6,17,14
1541872394765767,8,1,21,4,0,-1,-27,10
1541872394779765,7,-5,19,5,-4,-6,-1,3
1541872394779765,-4,-12,17,11,10,2,19,26
1541872394781765,-3,-7,7,-8,-5,8,-25,17
1541872394781765,0,-1,9,4,3,-10,-2,15
1541872394802837,-1,-8,4,4,-7,8,0,14
1541872394802837,-2,1,-2,-3,-1,-5,1,9
1541872394804788,-5,1,-3,-3,-1,9,2,-2
1541872394804788,-5,-5,-4,5,8,6,-3,-8
1541872394816810,1,-8,-5,1,-1,3,-11,-4
1541872394816810,-4,-5,-2,-3,-5,-18,2,6
1541872394825803,0,-4,-6,0,-3,3,17,-7
1541872394825803,-6,-5,-2,-3,-2,-11,-15,-11
1541872394839831,4,8,-4,-3,-1,-8,-3,1
1541872394839831,-1,-3,-7,-2,-6,3,-16,-1
1541872394841824,-3,1,-5,-1,-3,-4,-14,-7
1541872394841824,-5,-5,-3,4,-2,0,14,-6
1541872394862851,0,-2,3,2,8,-2,6,0
1541872394862851,-5,-3,-3,-2,0,4,3,-1
1541872394863851,-6,-6,-3,-7,6,-1,1,-7
1541872394863851,4,-5,1,-14,-8,4,8,3
1541872394875862,2,-1,-4,-12,4,-10,-13,17
1541872394875862,-1,0,0,-4,-2,-4,-29,31
1541872394884868,-1,-7,0,7,8,-1,-26,48
1541872394884868,0,-3,-1,10,6,-3,-12,83
1541872394899862,-4,-3,0,0,-7,4,-12,110
1541872394899862,-8,-15,-1,3,-3,7,7,72
1541872394901863,-12,-9,-5,27,-7,18,-13,26
1541872394901863,-3,-1,-1,111,-8,-17,7,-57
1541872394922936,-6,-10,0,59,-4,3,2,-26
1541872394922936,-17,-8,12,-14,0,0,15,-63
1541872394923937,-4,5,76,-30,-2,8,11,-113
1541872394923937,12,3,118,-64,1,18,7,-85
1541872394935911,33,15,127,-35,-5,13,27,-39
1541872394935911,76,-2,-83,-30,9,7,4,-35
1541872394945901,113,1,-85,-26,-6,3,14,-1
1541872394945901,127,-2,5,-9,2,-2,28,41
1541872394950924,127,105,-20,-9,-6,-2,8,4
1541872394950924,-26,24,121,-35,4,-1,-1,119
1541872394959926,-104,-27,68,0,4,-12,2,120
1541872394959926,-128,-33,-61,-27,3,10,-1,72
1541872394974940,-128,-64,-106,16,-7,0,-1,-7
1541872394974940,-66,-31,-128,27,-7,-12,9,-9
1541872394974940,-25,-3,-128,7,-7,-21,7,-51
1541872394974940,-36,-8,-89,-25,-5,-16,-12,-18
1541872394988954,-45,-31,-93,-11,0,-18,-2,-25
1541872394988954,-19,3,-66,19,1,-17,-11,-47
1541872394995960,-23,-19,-6,27,0,-16,-3,-8
1541872394995960,-19,1,-55,-8,-7,3,-17,-56
1541872395010973,2,15,-1,1,7,-4,-11,-47
1541872395010973,-11,22,37,9,-4,7,19,-33
1541872395019971,-31,-2,41,-9,-6,-2,-24,-36
1541872395019971,10,4,5,-16,2,-1,4,-53
1541872395033991,12,-9,0,-9,-3,4,-7,-31
1541872395033991,4,-13,40,7,3,10,-4,-21
1541872395041999,20,15,-24,-6,1,8,2,-42
1541872395041999,14,5,2,-8,-2,1,2,-9
1541872395049004,-5,-12,18,-7,-5,-5,-18,-11
1541872395049004,30,-19,3,-20,3,-9,-2,-17
1541872395056010,9,11,1,-5,-7,9,-17,-2
1541872395056010,-17,-4,18,0,7,-16,20,-7
1541872395071022,-6,0,4,-15,0,13,10,15
1541872395071022,9,-4,3,-9,-6,1,-7,-3
1541872395080014,2,3,-2,-5,0,-4,3,2
1541872395080014,4,0,3,14,1,1,-6,19
1541872395094041,-1,-9,25,15,3,-5,-1,-10
1541872395094041,-3,4,18,16,-4,4,2,-3
1541872395102048,-2,0,17,9,-1,2,9,6
1541872395102048,-12,-1,21,13,1,5,-4,-9
1541872395125067,-47,-10,14,3,2,-3,-1,-15
1541872395125067,-38,6,29,7,-5,-1,-2,-51
1541872395127068,13,10,31,-2,0,-2,2,-33
1541872395127068,32,14,20,6,5,6,-2,-63
1541872395139079,51,-1,13,-4,-2,1,9,-41
1541872395139079,31,0,13,-2,-3,-4,3,2
1541872395146084,12,-3,1,-3,1,-8,-4,23
1541872395146084,11,-8,-4,-4,3,3,1,58
1541872395163099,4,-12,0,-4,6,27,18,57
1541872395163099,-2,-9,-8,3,-1,-16,-6,43
1541872395164083,-3,-8,-11,-3,-1,3,10,33
1541872395164083,-4,-5,-4,-3,-5,-3,-7,32
1541872395185116,-6,0,-4,-1,1,-4,-8,23
1541872395185116,-2,-1,-7,3,2,-6,-7,7
1541872395187117,2,-2,-4,2,-3,2,11,5
1541872395187117,-5,-4,0,1,6,6,-4,13
1541872395199128,-2,-10,-8,-3,-4,-7,-5,4
1541872395199128,3,-5,-2,3,4,12,25,0
1541872395206134,0,-6,-3,2,0,-1,0,2
1541872395206134,-2,0,-2,-4,-6,-5,-7,0
1541872395223148,1,1,-5,0,-1,-7,-4,-3
1541872395223148,6,1,-3,1,0,0,-4,-4
1541872395224129,0,-1,0,-1,4,-2,5,0
1541872395224129,-6,0,-3,-4,-4,4,-2,-2
1541872395245166,-2,5,-1,-2,3,-4,-13,0
1541872395245166,-2,2,-2,2,-2,1,-9,-5
1541872395247148,-2,1,-5,-6,-2,-4,0,-4
1541872395247148,1,-1,-3,3,-2,1,-4,0
1541872395259213,-6,-4,-3,-1,-3,-11,-12,-3
1541872395259213,3,-3,-1,-2,-1,7,5,3
1541872395266174,1,3,-2,-2,1,-3,2,-2
1541872395266174,-1,1,-5,-2,-6,4,-22,-3
1541872395282197,-5,-6,-5,-3,-6,-17,-7,-3
1541872395282197,-1,1,4,3,2,10,10,-1
1541872395284178,0,-1,-3,-2,-4,-1,0,-1
1541872395284178,-1,-3,-3,-2,-4,-6,-6,3
1541872395305215,1,3,0,-2,-2,3,4,0
1541872395305215,-2,-2,-5,-5,-7,-3,-16,-5
1541872395307212,-1,-3,4,2,8,-2,1,-2
1541872395307212,-5,-2,1,0,-1,3,-1,-1
1541872395319263,0,5,0,2,-2,-3,3,0
1541872395319263,-2,-5,-2,-3,-2,-6,-6,-4
1541872395326268,0,-2,-2,1,0,1,-3,-1
1541872395326268,0,2,2,0,-1,-5,5,-1
1541872395343243,2,0,-3,-3,1,6,0,1
1541872395343243,-2,2,2,1,2,-3,-5,-2
1541872395344229,-2,-3,-1,-1,-3,-1,-18,-4
1541872395344229,-4,-7,1,4,5,11,17,2
1541872395365265,5,6,-1,-3,-1,16,3,1
1541872395365265,-3,3,-1,0,-5,-31,2,-4
1541872395367268,0,0,-1,-1,-1,4,-6,4
1541872395367268,-5,0,-3,-2,-1,-6,-1,-2
1541872395379277,0,-4,0,1,-5,2,6,-1
1541872395379277,1,1,-3,0,1,1,-2,-2
1541872395386285,-1,-4,0,0,-1,1,2,-3
1541872395386285,0,1,-2,-1,-4,1,-2,0
1541872395402296,-5,-1,2,-2,2,-1,-1,-1
1541872395402296,-3,-5,-3,-4,-3,-1,-18,-1
1541872395404283,2,3,-2,2,-4,-4,12,-2
1541872395404283,1,1,-1,0,1,-4,8,0
1541872395425309,-6,-1,-3,0,-1,-2,-6,-1
1541872395425309,-2,-5,-3,-3,1,5,2,1
1541872395427311,3,1,2,-1,-5,-2,-9,-1
1541872395427311,-8,-11,-7,2,1,-10,16,0
1541872395439361,-1,5,0,-2,-7,-19,-4,-2
1541872395439361,1,4,0,4,9,11,1,4
1541872395446368,-4,-1,-3,-2,-3,5,-3,-3
1541872395446368,4,7,-1,-6,-9,-6,-13,-4
1541872395462380,-4,7,3,4,13,-2,6,2
1541872395462380,1,6,-5,-4,-5,6,-4,-2
1541872395464340,-2,-4,-1,-3,1,-5,12,-4
1541872395464340,8,4,-2,-1,-2,11,-4,-1
1541872395485364,-8,-5,-3,-1,-3,-25,11,1
1541872395485364,4,11,3,2,3,8,2,-1
1541872395486359,-3,-1,-4,-3,-1,8,4,1
1541872395486359,1,2,0,-6,-7,-16,-15,-4
1541872395499362,2,3,-1,-1,4,20,6,0
1541872395499362,0,1,0,-4,-4,-2,-12,-5
1541872395508374,-3,-5,-2,1,-4,-5,12,3
1541872395508374,5,5,2,4,8,-7,-5,3
1541872395522395,3,-3,-1,1,-3,5,8,0
1541872395522395,2,-1,2,-1,-4,-5,-3,2
1541872395524386,-3,-5,-4,2,2,13,4,-4
1541872395524386,3,-7,-7,-6,-5,-17,-3,0
1541872395545413,-5,0,0,5,7,-4,11,0
1541872395545413,2,1,1,-3,-4,5,15,0
1541872395546414,-2,-3,-2,-2,-8,-7,-11,0
1541872395546414,-3,-6,1,2,6,8,4,0
1541872395559421,5,3,-1,-6,-10,-6,-8,-5
1541872395559421,-3,-5,-2,3,1,6,4,1
1541872395568429,2,2,3,-2,5,1,-4,0
1541872395568429,-7,-5,-3,0,0,6,-4,-1
1541872395582479,0,-8,3,-3,-4,1,-7,-1
1541872395582479,-1,-3,-4,-3,-3,-6,-1,-4
1541872395584441,4,5,-1,0,-1,-7,-10,0
1541872395584441,-6,-6,1,5,3,11,8,1
1541872395605498,2,1,-1,-4,-2,0,3,-2
1541872395605498,-2,-6,-1,0,1,-1,-7,-1
1541872395606498,-1,-1,2,2,2,4,1,0
1541872395606498,-2,2,-2,-3,-4,-4,1,-1
1541872395618473,-1,-3,-1,2,5,5,-3,-1
1541872395618473,-1,-6,-1,0,5,16,6,3
1541872395628465,-2,-4,-3,0,-2,-18,-5,-3
1541872395628465,-2,-4,1,-3,-2,4,-4,1
1541872395642530,-5,-10,-1,0,-3,-3,-22,-5
1541872395642530,1,6,-1,1,-1,-4,8,-2
1541872395644486,-2,-2,-3,0,1,0,0,-2
1541872395644486,2,-5,-3,-4,-3,-3,2,0
1541872395665512,0,7,3,0,-2,0,-3,0
1541872395665512,-4,6,-1,-1,-5,-14,-10,-6
1541872395666512,-4,-5,-1,0,11,2,-1,0
1541872395666512,-1,3,-1,-1,-5,2,-1,0
1541872395678523,6,8,-1,-2,0,-2,-1,2
1541872395678523,-7,-9,0,1,-3,5,-3,-4
1541872395687530,-1,0,1,-1,-2,-4,7,0
1541872395687530,4,2,-1,-1,4,1,1,-1
1541872395703543,-6,-5,-4,-2,1,2,-3,0
1541872395703543,3,1,1,-2,-5,-3,9,0
1541872395704536,-1,-5,0,-3,-2,0,-10,-1
1541872395704536,0,-2,-1,5,3,-4,6,2
1541872395725561,-4,-4,-3,1,0,4,-8,-3
1541872395725561,3,-7,2,0,-1,-9,3,-1
1541872395726556,1,3,3,-2,-1,3,12,-2
1541872395726556,1,0,-1,-6,-3,-4,-8,-2
1541872395738572,1,3,1,-4,1,-3,0,0
1541872395738572,-3,1,-2,0,0,0,-2,-1
1541872395747581,-2,-3,-2,-1,-5,2,-5,-1
1541872395747581,-4,-11,0,-1,-3,-2,1,-4
1541872395762592,2,3,-1,1,-3,-5,2,5
1541872395762592,-5,-2,-4,-1,5,3,1,-1
1541872395764594,-2,-3,1,-3,-1,1,3,2
1541872395764594,-3,6,4,0,1,-2,-3,-3
1541872395785648,1,-2,0,-1,-3,2,1,1
1541872395785648,0,-1,-2,-2,-2,-2,-2,-1
1541872395786608,0,-2,-4,2,-2,-3,-4,1
1541872395786608,-3,2,-1,0,0,3,1,1
1541872395798658,-1,-1,1,-1,2,0,0,-3
1541872395798658,2,4,1,1,-1,-4,-5,-2
1541872395807629,-4,-3,-1,-1,-4,-1,-1,-3
1541872395807629,-4,-1,0,1,-1,2,-7,1
1541872395822642,2,2,-4,-1,-2,-3,4,-2
1541872395822642,-1,-4,4,2,-1,-1,-2,3
1541872395824643,1,6,-1,-1,2,-2,0,-2
1541872395824643,2,0,-1,2,-1,0,1,-1
1541872395844660,-2,-2,-1,-2,-3,-2,0,-2
1541872395844660,-2,5,-1,-3,0,-4,-14,-4
1541872395852647,-1,2,2,1,-1,2,9,-1
1541872395852647,-3,-1,0,-2,-2,-4,-4,-4
1541872395858670,3,5,-2,-4,0,0,1,-4
1541872395858670,-1,2,-1,-1,0,-3,0,-4
1541872395867660,-1,4,-2,1,-1,-1,-12,0
1541872395867660,-1,2,-1,-1,-2,-5,4,1
1541872395881691,-2,-1,-3,-2,-1,4,5,-1
1541872395881691,-3,-3,-3,-4,-5,-2,-2,0
1541872395888696,0,-2,-4,-1,1,-1,-3,-2
1541872395888696,2,1,-3,-1,-2,1,-2,0
1541872395905708,-1,-4,1,-1,-2,-4,-4,0
1541872395905708,-3,3,-2,2,0,0,2,0
1541872395906691,-1,-2,0,-4,-3,0,-3,-2
1541872395906691,6,3,2,-3,-1,-2,15,2
1541872395918721,1,1,1,3,2,0,-10,1
1541872395918721,3,-4,-2,2,8,4,21,3
1541872395927722,0,8,6,-1,0,-2,-7,0
1541872395927722,-3,-1,-2,0,0,3,4,-1
1541872395941740,2,1,1,1,-1,0,-5,0
1541872395941740,-2,-13,-3,-3,-3,-5,-6,-1
1541872395948746,-3,-8,1,1,3,4,-1,0
1541872395948746,-7,-11,-4,-3,2,-1,-4,-3
1541872395965742,2,-5,-1,0,-2,-1,-2,1
1541872395965742,2,6,2,1,-5,0,-6,1
1541872395966741,6,7,-1,-2,0,-2,3,0
1541872395966741,2,4,2,4,0,0,-14,-2
1541872395987815,-3,2,-3,-2,-3,-5,-9,-2
1541872395987815,-2,-4,-3,-3,0,2,14,-1
1541872395989799,-3,-3,-2,-2,2,4,-6,0
1541872395989799,0,4,-1,-2,0,-1,8,-2
1541872396001790,1,4,1,0,-2,-1,-1,10
1541872396001790,0,5,-2,0,-2,-4,-7,-5
1541872396008797,-5,-8,-2,-1,-1,-4,-6,-2
1541872396008797,-6,-4,0,1,-3,0,4,-9
1541872396024809,-5,1,-3,-3,1,1,-3,0
1541872396024809,-5,-10,0,0,0,0,-11,0
1541872396026790,-2,-1,-2,-1,-1,1,8,3
1541872396026790,-3,-4,1,0,1,-1,-8,5
1541872396047863,-3,2,2,-2,-1,-2,4,-6
1541872396047863,0,1,-4,-1,1,-1,-1,0
1541872396049828,-3,2,-1,-3,-2,1,-7,-4
1541872396049828,-8,-4,-1,0,-1,1,14,-4
1541872396061838,-16,-10,-3,-1,0,1,-6,-5
1541872396061838,-8,-12,0,-3,-4,-3,-8,-2
1541872396068826,-18,-23,-4,0,1,3,2,-3
1541872396068826,-8,-4,0,1,2,1,-8,-2
1541872396084858,-5,-6,-2,1,-2,4,7,-1
1541872396084858,4,7,5,1,6,-2,1,0
1541872396086850,16,16,-1,-2,-8,-9,0,7
1541872396086850,26,15,3,0,-2,1,-2,4
1541872396107876,20,9,-1,2,1,-9,3,-2
1541872396107876,24,17,1,4,-2,-5,-1,9
1541872396109879,22,11,1,1,0,-1,-4,1
1541872396109879,12,11,-3,-4,-5,-4,2,3
1541872396121888,6,4,-1,-6,-2,1,-2,-1
1541872396121888,-3,-1,0,-1,-1,-4,6,-3
1541872396130895,-4,0,-1,-1,-2,-9,0,-6
1541872396130895,-4,-3,-4,-2,-1,-1,5,2
1541872396144907,-9,-5,-2,-1,3,-2,-31,-5
1541872396144907,-11,-8,-3,-3,-1,0,4,-5
1541872396146900,-6,5,-1,-4,-4,-2,2,-1
1541872396146900,-9,-4,4,2,-1,-2,-3,-7
1541872396167962,-3,-4,0,-2,-1,1,-5,2
1541872396167962,-3,-6,-3,-2,2,1,2,-3
1541872396169925,-4,3,-7,-4,-1,4,1,1
1541872396169925,-8,-2,-3,0,-2,2,-9,-3
1541872396181928,2,5,-5,-2,-5,-4,4,2
1541872396181928,1,-4,-4,-2,3,5,1,2
1541872396190945,2,-1,3,2,-3,0,9,9
1541872396190945,-4,-6,-4,2,7,5,-6,0
1541872396204956,-1,0,3,-1,-6,-4,9,-5
1541872396204956,4,3,2,0,1,0,-4,3
1541872396206940,-6,-4,4,0,-3,-1,12,-1
1541872396206940,-9,-2,2,-4,-1,-5,-16,1
1541872396227975,-2,7,2,0,-3,-1,-3,-12
1541872396227975,-1,6,7,3,0,2,3,0
1541872396228977,-3,-2,3,-1,3,-1,-8,-2
1541872396228977,3,3,1,-1,1,-1,4,2
1541872396240986,-1,-9,-2,-1,-1,0,19,-4
1541872396240986,-4,-9,-4,-1,-3,-2,-21,-6
1541872396256980,5,1,-7,-1,1,0,10,-4
1541872396256980,2,-1,-9,2,-1,-1,-3,2
1541872396264997,6,6,-7,1,3,0,0,3
1541872396264997,4,6,-8,-5,-6,-3,1,1
1541872396266998,-4,-3,-7,-2,2,0,-3,-10
1541872396266998,1,1,-7,-4,-5,-3,0,-9
1541872396288060,-1,-7,-11,-4,1,0,-4,6
1541872396288060,-4,0,-8,3,6,3,2,7
1541872396289027,1,1,1,2,0,2,0,1
1541872396289027,1,0,-2,-3,0,0,-6,-1
1541872396301036,-3,-4,4,-1,-3,1,1,-2
1541872396301036,-6,-7,6,-2,-4,-5,12,-6
1541872396311036,-6,-8,16,-1,-2,-7,-19,2
1541872396311036,-4,-1,28,-1,0,0,17,7
1541872396325055,-5,-4,39,-1,1,4,8,2
1541872396325055,-6,5,37,-3,-4,-2,-8,-9
1541872396327056,1,2,48,0,-2,-4,-3,7
1541872396327056,2,-2,22,-1,-2,-3,-5,-5
1541872396348075,2,1,-17,-1,-2,-1,-5,5
1541872396348075,6,-4,-43,-4,-1,-1,9,5
1541872396349073,5,1,-55,-1,0,-2,3,-4
1541872396349073,-1,-10,-50,4,0,0,4,-2
1541872396361086,-2,-4,-46,1,0,-2,4,0
1541872396361086,2,-2,-37,1,3,0,-8,0
1541872396370073,1,-4,-31,1,-2,0,-4,-2
1541872396370073,0,3,-24,1,1,-2,0,22
1541872396385087,-2,-11,-8,3,6,2,1,17
1541872396385087,0,-5,6,2,-4,1,8,9
1541872396387088,-1,-2,7,-1,2,-4,-7,0
1541872396387088,-4,1,16,-3,-5,-2,2,-15
1541872396408124,-2,6,24,1,-1,1,0,-3
1541872396408124,-5,3,28,-4,2,1,-13,-2
1541872396409117,-8,-5,31,1,-3,3,4,-8
1541872396409117,-1,1,33,-6,-2,-3,2,8
1541872396421134,-7,6,40,-2,-1,-3,-9,1
1541872396421134,-4,0,31,-3,-4,-1,-5,-4
1541872396430133,-3,5,10,1,0,0,9,-10
1541872396430133,0,-6,7,0,-1,-1,-11,-23
1541872396445190,4,9,2,2,-2,-3,-1,-30
1541872396445190,0,1,-13,-1,-1,-1,1,-25
1541872396447151,2,-7,-15,3,2,0,-9,-1
1541872396447151,3,-6,-35,1,-1,-1,-1,10
1541872396468176,-2,-18,-11,0,0,-2,7,-13
1541872396468176,1,-12,-8,2,-3,-1,-5,10
1541872396469155,-2,-8,-30,-7,-5,-3,-4,8
1541872396469155,-1,-6,-34,-3,-1,0,2,17
1541872396481184,5,11,-41,-1,-1,0,9,23
1541872396481184,-1,14,-29,0,3,0,-19,18
1541872396490178,-4,-1,-9,2,0,3,7,108
1541872396490178,-5,-10,12,-4,-1,1,-12,23
1541872396505203,-3,2,16,-6,5,0,-11,-67
1541872396505203,-6,6,29,-4,-4,1,16,-86
1541872396507205,1,9,24,-2,-3,-4,-10,-97
1541872396507205,-3,0,25,-1,-2,0,10,-27
1541872396527222,-4,-6,16,0,-3,2,-11,1
1541872396527222,-2,-10,2,1,1,-1,0,-6
1541872396534228,-6,-5,3,6,-2,-3,-19,-65
1541872396534228,1,6,-5,3,0,-1,-4,-43
1541872396541234,-1,-3,-13,-10,0,0,11,-20
1541872396541234,2,9,-12,-8,-1,-2,-6,18
1541872396550222,-1,-3,-23,-6,-3,-1,3,15
1541872396550222,4,-4,-12,0,0,0,13,13
1541872396565288,-4,-6,-5,5,-3,-2,-18,15
1541872396565288,-3,-6,-12,2,-2,-4,8,38
1541872396567238,1,1,-7,2,-1,1,5,70
1541872396567238,-9,-3,5,-3,-1,4,1,99
1541872396588274,-5,-4,9,0,1,0,2,12
1541872396588274,0,-3,18,-5,1,1,4,-55
1541872396589264,0,0,24,-9,-1,-2,0,-128
1541872396589264,9,7,3,-3,-5,-2,-6,-101
1541872396601283,2,1,-5,3,3,-1,8,-49
1541872396601283,0,0,-12,6,-4,-3,1,-15
1541872396610271,3,12,-12,3,2,2,4,-20
1541872396610271,-2,-4,-5,0,-5,-6,2,-55
1541872396625341,-3,22,3,1,-3,-2,39,-27
1541872396625341,-7,0,8,-4,2,1,33,-57
1541872396627304,-7,-6,9,-7,-3,1,7,24
1541872396627304,-3,-1,4,-5,3,1,-22,37
1541872396648322,2,-13,-1,5,1,-1,8,46
1541872396648322,1,-6,-6,5,-2,-1,13,58
1541872396649315,1,-4,4,8,-1,-1,19,61
1541872396649315,0,-5,-2,2,4,0,16,12
1541872396661333,1,-4,0,-1,-4,-4,6,28
1541872396661333,-4,-21,11,-1,-2,0,25,43
1541872396670331,-5,-3,9,-6,0,-2,33,18
1541872396670331,2,15,-10,-6,-2,-1,95,57
1541872396684388,-14,-12,9,-2,3,-1,94,127
1541872396684388,-9,7,8,-3,-2,3,109,35
1541872396691341,-13,-3,-4,1,0,2,-79,20
1541872396691341,11,20,-26,3,2,-3,-127,-81
1541872396708368,25,1,-17,0,-7,-3,-79,-128
1541872396708368,24,1,-2,3,-4,-6,-17,-109
1541872396709367,19,15,2,-3,1,-3,37,-90
1541872396709367,2,13,4,-7,0,1,40,-70
1541872396721382,-8,12,-15,-4,-1,3,35,-72
1541872396721382,-3,-6,-17,-5,-1,-2,-10,-84
1541872396730380,-3,-13,4,-4,-5,-3,36,-61
1541872396730380,-7,-9,12,2,-3,-2,-11,7
1541872396744401,-1,-11,-9,-1,0,-1,-15,34
1541872396744401,-5,2,-6,-6,0,0,-35,49
1541872396751407,-5,18,-42,-5,2,0,-19,62
1541872396751407,-1,14,1,1,0,-2,13,61
1541872396768417,-4,-31,31,-2,0,1,-7,31
1541872396768417,-3,-26,17,4,-1,0,-25,47
1541872396769417,6,-13,18,3,-1,-1,-3,35
1541872396769417,-4,-16,0,0,-1,0,1,4
1541872396781431,4,7,-29,2,-3,-3,-7,18
1541872396781431,1,-4,-11,3,2,4,-30,22
1541872396790420,-3,-12,-9,-8,-2,-2,3,-4
1541872396790420,0,13,1,4,-1,-1,-5,-1
1541872396804450,-1,9,-2,2,-1,-1,-12,23
1541872396804450,2,10,-7,3,1,1,-2,37
1541872396811456,-2,2,4,6,-1,2,-9,52
1541872396811456,-10,-19,25,3,0,3,21,107
1541872396827470,-6,22,1,1,2,-2,-7,-17
1541872396827470,-2,1,-12,-2,-5,-5,-10,-87
1541872396829461,5,1,-6,3,1,-2,8,-128
1541872396829461,5,-15,-12,-1,-3,-3,-5,-120
1541872396841464,2,-17,-14,-1,5,-1,11,-38
1541872396841464,-3,-13,2,-2,1,-2,13,0
1541872396850484,-3,-5,10,-1,-5,0,-18,0
1541872396850484,-2,-10,2,-3,-4,0,0,28
1541872396865519,1,14,5,-4,-3,-1,-1,27
1541872396865519,-3,9,8,1,-1,1,-9,31
1541872396873508,-1,-1,7,-1,2,1,12,46
1541872396873508,-4,10,-2,-1,1,-1,16,-9
1541872396887519,-6,11,8,-4,-1,-1,-4,-5
1541872396887519,-4,16,5,-4,-1,-1,-9,12
1541872396889511,0,6,6,-2,2,0,13,15
