timestamp,x,y,z
1541872381098490,-8.0625,0,4.8125
1541872381120543,-3.8125,2.125,4.75
1541872381135541,-2.75,0.3125,4.25
1541872381158541,-8,-1.25,4.1875
1541872381180566,-11.9375,-3.1875,4.5625
1541872381195589,-10.75,-2.4375,2.5625
1541872381234622,-9.9375,-2.0625,1.875
1541872381236615,-8.4375,-2.6875,2.125
1541872381249630,-9.6875,-4.375,3.25
1541872381272635,-10.25,-5.5625,5.75
1541872381286660,-9.375,-4.6875,5.5
1541872381315688,-5.875,-3.9375,5.0625
1541872381359725,-9.5625,-3.875,5.625
1541872381369734,-8.25,-5.875,5.375
1541872381370714,-6.4375,-7.375,6.5625
1541872381383726,-9.6875,-7.0625,5.8125
1541872381404762,-6.375,-7.25,6
1541872381427781,-6.6875,-8.3125,8
1541872381445795,-11,-10,9
1541872381464811,-11.9375,-10.0625,9.6875
1541872381487826,-12.6875,-7.8125,10.4375
1541872381505827,-13.1875,-7.875,10.9375
1541872381524856,-14,-7.4375,12.5
1541872381550863,-17.8125,-7.5,13.5625
1541872381564894,-19.375,-6.9375,13.4375
1541872381584910,-18.8125,-6.8125,12.9375
1541872381607924,-21.6875,-7.5,9.8125
1541872381624945,-24.25,-10,8.375
1541872381644960,-27.1875,-13.875,5.8125
1541872381666978,-29.75,-17.3125,0.125
1541872381684987,-38.375,-25.25,-8.4375
1541872381704993,-57.5625,-35.375,-16.1875
1541872381727063,-71.0625,-40.1875,-14.6875
1541872381745026,-62.8125,-35.1875,-11.125
1541872381766083,-54.1875,-30.1875,-14.1875
1541872381787077,-68.0625,-23.5625,-18.4375
1541872381805074,-73.4375,-8.875,-9.1875
1541872381826107,-62,3.6875,-7
1541872381847163,-38.75,16,-4.9375
1541872381865132,-12.5,25.75,-6.875
1541872381886139,-1.375,35.875,-8.0625
1541872381907176,-7.6875,43.75,-8.375
1541872381925173,-22.3125,48.5625,-5.6875
1541872381946198,-20.625,49.4375,-8.4375
1541872381967225,-13.875,50.5625,-12.0625
1541872381985220,-6.5625,51.625,-22.25
1541872382006238,-10.0625,51.5625,-31.125
1541872382027294,-8.1875,52.8125,-39.625
1541872382045270,-6,50.0625,-45.75
1541872382066287,-5.625,44.625,-53.0625
1541872382087315,-12.9375,32.9375,-63.125
1541872382106323,-11.9375,22.8125,-70.25
1541872382126345,-7.9375,19.3125,-78.5625
1541872382147369,-14.5625,12.875,-85.0625
1541872382165370,-25.5,5.9375,-87.1875
1541872382188404,-38.875,8.75,-91.5625
1541872382207423,-26.3125,10.5625,-94.9375
1541872382225434,-26.25,2.0625,-102.438
1541872382254445,-27.4375,-5.8125,-107.563
1541872382268512,-31.5,-10,-114.188
1541872382284482,-28.6875,-21.6875,-116.25
1541872382307501,-35.125,-27.375,-118.125
1541872382328558,-39.5,-30.5625,-113.125
1541872382350542,-33.375,-28.5,-111.125
1541872382367551,-29.25,-32.1875,-107.625
1541872382389565,-13.4375,-33.875,-109.188
1541872382410626,2.875,-47.625,-110.313
1541872382426604,-2.6875,-46.1875,-101.125
1541872382449604,-4.375,-37.25,-90.5625
1541872382470675,-13.375,-28.6875,-77.1875
1541872382486646,-25.125,-27.3125,-74.9375
1541872382509653,-19.4375,-38.1875,-71.0625
1541872382530690,9.125,-33.4375,-72.6875
1541872382546687,25.75,-28.375,-67
1541872382569717,12.1875,-17.8125,-66.5625
1541872382590719,-19,-3.375,-63.0625
1541872382606735,-35.9375,2.4375,-57.625
1541872382629766,-39.5625,1.5,-52.9375
1541872382650769,-43.3125,-6.1875,-47.8125
1541872382666837,-26.8125,-10.5625,-41.6875
1541872382689821,-8.9375,-9.125,-27.375
1541872382713835,-22.625,-13.1875,-14.125
1541872382726887,-30.8125,-11.75,-5.1875
1541872382749853,-22,-10.375,0.375
1541872382771885,-18.3125,-7.9375,-2.125
1541872382786937,-17.75,-10,-4.9375
1541872382809903,-6.9375,-15,-8.6875
1541872382831934,3.1875,-20.4375,-10.375
1541872382852955,6.375,-24.8125,-14.5625
1541872382869965,3.875,-26.625,-20.625
1541872382891971,-3.3125,-28.0625,-28.3125
1541872382913004,-1.9375,-24.5,-38.6875
1541872382931000,6.8125,-22.3125,-44.9375
1541872382952020,15.5,-20.75,-50.1875
1541872382973054,18.8125,-20.375,-50.125
1541872382990068,17.75,-17.125,-49.375
1541872383012082,8.4375,-14.25,-45.125
1541872383033139,-0.625,-11.5625,-40.375
1541872383050117,-3.6875,-9.25,-35.0625
1541872383072117,-3.9375,-7.75,-30
1541872383093153,-5.125,-5.1875,-25.625
1541872383110164,-14.8125,-2.5,-21.5625
1541872383132168,-24.25,-0.0625,-18.6875
1541872383153202,-30.375,1.375,-16.6875
1541872383170197,-33.4375,2.1875,-16.1875
1541872383192217,-31,3.1875,-15.8125
1541872383213251,-32,5.1875,-15.6875
1541872383229246,-39.5,6.8125,-15.5
1541872383252284,-44.375,7.75,-12
1541872383273301,-45.9375,8.1875,-7.6875
1541872383290315,-49.625,8.8125,2.3125
1541872383312335,-50.375,7.625,10.6875
1541872383333388,-53.125,5.9375,19.6875
1541872383349364,-55.5,7.9375,27.9375
1541872383372384,-39.5625,4.8125,41.375
1541872383393401,-24.375,6.9375,44.5
1541872383409414,-29.25,1.6875,49.5625
1541872383432414,-22.1875,1.75,45.875
1541872383453449,-20.3125,4.3125,42.5625
1541872383469463,-35.6875,5.9375,41.8125
1541872383492482,-48.5,9.0625,38.75
1541872383513540,-51.5625,11.125,35.75
1541872383529513,-48.125,6.875,29.5
1541872383552532,-49.8125,10.1875,20.125
1541872383573549,-68.3125,5.5625,24.625
1541872383595603,-61.1875,-4.375,30.9375
1541872383612599,-48.3125,-4.75,42.875
1541872383634582,-47.375,-1.8125,54.0625
1541872383649609,-55.8125,-2,64.375
1541872383672626,-56.1875,-4.75,77.375
1541872383694645,-36.6875,-0.3125,84.9375
1541872383715665,-24.8125,1.5625,90.875
1541872383732680,-30.1875,0.125,98.9375
1541872383754680,-24.875,-0.0625,105.063
1541872383775699,-15.1875,-0.5625,114.563
1541872383792764,-13.125,-2.5625,122.438
1541872383814729,-10.875,-4.5625,131.063
1541872383835801,-4.8125,-5,137.375
1541872383852775,-0.1875,-6.25,141.438
1541872383874778,-5.875,-5.9375,146.688
1541872383895850,-9.125,-3.25,147.813
1541872383912810,-6.625,-2.5,149.125
1541872383934847,-7.75,-1.6875,148.688
1541872383955864,-7.125,-3.4375,148.563
1541872383971877,-3.75,-6.625,149.375
1541872383994895,-0.4375,-9.5,145.438
1541872384015913,1.875,-12.8125,143.375
1541872384031924,-1.6875,-14.6875,142.313
1541872384054928,-4.75,-14.8125,140
1541872384075963,-4.5,-14.125,136.625
1541872384091987,-4.375,-18.0625,130.75
1541872384114996,-8.125,-22.75,126.313
1541872384136016,-9.8125,-26.9375,119.625
1541872384152006,-5.4375,-32,114.875
1541872384175061,-8.8125,-35.6875,108.188
1541872384197059,-11.9375,-37.3125,105.5
1541872384212076,-7.8125,-35.0625,96.1875
1541872384235095,-4.875,-33.5,87.3125
1541872384256111,-3.875,-31.5625,74.6875
1541872384272105,-6.8125,-29.6875,63.375
1541872384295143,-3.0625,-26.9375,53.1875
1541872384316161,2.3125,-22.875,43.8125
1541872384332155,5,-18.0625,36.0625
1541872384355193,6.375,-14.3125,30.5
1541872384376210,6.875,-9.9375,28.1875
1541872384391223,10.5,-7.5625,23.375
1541872384415243,11.0625,-6.1875,17.625
1541872384436241,15.1875,-6.125,11
1541872384442265,14.1875,-10.375,12.125
1541872384459275,3.25,-13.1875,10.5
1541872384480292,1.875,-10.3125,8.5625
1541872384502350,6.75,-6.5625,7
1541872384519339,3.5,-5.5,6.4375
1541872384540346,2.1875,-7.25,4.1875
1541872384562363,-0.5,-7.625,6.25
1541872384577371,-2.375,-7.125,6
1541872384601377,-0.1875,-5.25,3.375
1541872384622397,2.5,-5.0625,3.125
1541872384637407,1.1875,-7.5,2.8125
1541872384660480,-2.0625,-9,1
1541872384682463,-2.125,-8.25,-0.875
1541872384697476,-0.8125,-5.375,-4.3125
1541872384720495,0.625,-1.5,-8.375
1541872384742514,2.3125,2,-12.1875
1541872384757527,1.8125,3.375,-13.625
1541872384780526,1.5,3.4375,-13.4375
1541872384798593,1,5.3125,-12.5
1541872384817575,2.1875,7.6875,-12.3125
1541872384840593,4.3125,7.9375,-13.25
1541872384862595,3.5625,6.625,-13.0625
1541872384877659,2.8125,5.5625,-14.4375
1541872384900643,2.75,5.6875,-15.875
1541872384922661,2.3125,7.625,-20.3125
1541872384937672,2.75,10.1875,-27.875
1541872384960692,2.9375,12.25,-35.25
1541872384982711,2,11.875,-42.8125
1541872384997723,0.8125,9,-50.625
1541872385020741,-1.875,6.375,-57.375
1541872385042759,-4.6875,5.5625,-63.75
1541872385057772,-7.75,5.875,-69
1541872385080788,-10.1875,8.5,-74.6875
1541872385102845,-7.25,10.1875,-79.5
1541872385117821,-4,11.875,-83.125
1541872385140821,-2.4375,13.25,-85.375
1541872385162894,-2.9375,13.75,-90.0625
1541872385179856,-4.1875,12.5625,-91.875
1541872385199889,-4.25,10.25,-92.125
1541872385222908,-5.125,6.6875,-89.25
1541872385238914,-2.75,8.6875,-89
1541872385259938,0,11.9375,-91.9375
1541872385282958,-7.8125,7.4375,-85.9375
1541872385298956,-9.25,4.125,-79.5
1541872385319988,-3.6875,6.1875,-77.4375
1541872385337991,1.9375,6.875,-73.6875
1541872385359011,-2.4375,6.5625,-68.875
1541872385380040,-5.4375,8.0625,-64.1875
1541872385398034,-6.0625,10.3125,-62.875
1541872385419057,-0.5,9.0625,-62.1875
1541872385440087,2.0625,6.5,-59.8125
1541872385458083,-3.5,4.375,-55.3125
1541872385479102,-5.375,6.75,-53.5625
1541872385500171,-2.375,11.1875,-51.6875
1541872385523156,1.0625,12.25,-55.25
1541872385541170,1.125,5.4375,-53.75
1541872385560186,-5.4375,1.25,-48.3125
1541872385578182,-6.0625,6.0625,-48.8125
1541872385601203,0.6875,11.25,-50.9375
1541872385620236,5.1875,12.125,-53.6875
1541872385638236,2.8125,7.25,-56.75
1541872385661260,-2.6875,2.3125,-57
1541872385680320,-2.4375,3.875,-57.8125
1541872385698280,4.125,8.3125,-60.75
1541872385720317,9.375,9.5625,-64.6875
1541872385740334,6.25,5.125,-67.875
1541872385758350,1.6875,1.375,-67.4375
1541872385781352,-0.4375,1,-66.125
1541872385800385,0.3125,3.25,-63.25
1541872385818398,2.6875,3.375,-61.4375
1541872385840417,-0.5,2.5625,-59.125
1541872385861434,-5.0625,2.125,-58.1875
1541872385877438,-2.3125,2.8125,-58
1541872385900454,2.1875,3.8125,-58.75
1541872385921527,5.4375,4.6875,-61.75
1541872385937478,5,3.875,-63.1875
1541872385960507,1.125,2.125,-62.625
1541872385981513,-3.875,3.875,-63.3125
1541872385997527,-1.25,7,-64.9375
1541872386020562,-0.5625,5.8125,-68
1541872386041586,2.8125,4.5,-67.875
1541872386057591,2.125,4.875,-66.0625
1541872386079597,0.3125,7.25,-65.1875
1541872386100631,-3,9.375,-63.25
1541872386117636,-5.0625,10.3125,-62.25
1541872386139700,-8.6875,11.3125,-62.875
1541872386160681,-10.875,12.375,-63.1875
1541872386177695,-9.3125,12.25,-64.0625
1541872386199694,-6.9375,12,-65
1541872386220730,-6.625,12.4375,-64.125
1541872386237744,-8.6875,12.375,-60.8125
1541872386259754,-13.375,12.3125,-56.125
1541872386280816,-15,11,-50.6875
1541872386296788,-11.3125,9.5625,-44.75
1541872386319809,-9.5625,9.125,-39.8125
1541872386340830,-12.3125,8.125,-35.5
1541872386356833,-14.6875,7.75,-35.1875
1541872386379844,-13.4375,9.4375,-37.375
1541872386400879,-13.1875,11.125,-38.5625
1541872386416873,-9.5,10.4375,-38.1875
1541872386439891,-2.5,10.9375,-37.125
1541872386460928,0.125,10.8125,-33.8125
1541872386476942,-4.5,9.1875,-27.75
1541872386499944,-8.1875,8.125,-22.1875
1541872386522979,-6.3125,7.5,-17.375
1541872386544979,-5.25,6.625,-13.3125
1541872386559990,-4.5625,5.875,-10.75
1541872386583012,-3.375,5.6875,-8.75
1541872386598077,-1.625,5.25,-6.375
1541872386620050,-0.1875,4.4375,-4.25
1541872386643094,0.0625,4.0625,-3.125
1541872386657091,-1.875,3.5,-2.0625
1541872386680109,-3.875,3,-1.75
1541872386703131,-1.625,2.375,-0.5
1541872386717156,0.5,1.0625,0.375
1541872386740158,-1.5,0.6875,0.3125
1541872386762177,-4.75,-0.0625,0.5625
1541872386777184,-4.3125,-1.125,0.25
1541872386800190,3.1875,-1.625,-1.3125
1541872386823226,5.5625,-1.875,-2.125
1541872386837237,-0.3125,-2.125,-1.75
1541872386860258,-3.0625,-2.1875,-1.375
1541872386882262,0.125,-2.75,-0.25
1541872386897322,2.4375,-2.8125,1.125
1541872386920307,1.375,-3.0625,2.0625
1541872386942305,-0.4375,-2.6875,1.875
1541872386957337,-0.625,-2.5625,1.75
1541872386980373,2.875,-2.5,1.6875
1541872387002365,4.75,-1.875,1.5
1541872387023392,-0.8125,-1.5625,2.75
1541872387040407,-4.9375,-1.8125,4.125
1541872387062421,-3.9375,-2.25,7.3125
1541872387083441,-2.4375,-3.3125,12.6875
1541872387100473,-6.1875,-4.625,20.25
1541872387122456,-8.625,-5.0625,29.5
1541872387143491,-12.125,-5.625,38.0625
1541872387160507,-14.25,-6.875,44.1875
1541872387182513,-9.8125,-7.9375,46.875
1541872387203540,-5.5,-8.4375,48.1875
1541872387219554,-1.0625,-7.8125,47.9375
1541872387248577,-0.875,-7.0625,47.875
1541872387263592,-3.3125,-6.4375,48
1541872387279602,-3.5625,-5.375,47.0625
1541872387302618,-2.625,-3.875,45.0625
1541872387323674,-3.1875,-2.375,43
1541872387339651,-2.8125,-1.3125,40.1875
1541872387362653,-3.25,-1.125,37.6875
1541872387383688,-3.125,-1.3125,35.875
1541872387399702,-3.5625,-1.875,35.125
1541872387422721,-2.6875,-2.3125,34.375
1541872387444738,-0.6875,-3.8125,34.375
1541872387459750,-0.125,-5.4375,35.4375
1541872387482770,-2.5625,-6.5625,37.125
1541872387504805,-2.375,-7.125,38.125
1541872387519801,-3.1875,-8.625,40.6875
1541872387542820,-2,-8.375,44.625
1541872387564855,-1.375,-8.0625,49.5
1541872387585855,-2.3125,-7.6875,53.875
1541872387602869,-0.5625,-6.5,57.9375
1541872387624881,2,-6.1875,64.25
1541872387645940,1.8125,-6.875,73.25
1541872387662918,-5.8125,-6.5,82.5
1541872387684925,-7.5,-3.375,85.875
1541872387705953,-1,-1.75,85.5
1541872387722967,6.25,-2.875,83
1541872387744983,4.875,-4.8125,84.75
1541872387766003,-1.25,-4.8125,82.625
1541872387783014,-3.0625,-3.4375,80.25
1541872387805018,-0.3125,-1.875,75.3125
1541872387826052,-0.3125,-2.5,72.9375
1541872387843066,-3.1875,-4,70.4375
1541872387865065,-6.3125,-5,68.4375
1541872387886104,-4,-7.25,68.0625
1541872387903100,0,-5.8125,67.1875
1541872387933142,0.3125,-7.1875,65.125
1541872387946152,-0.1875,-9.75,65.625
1541872387963165,0.75,-10.0625,66.5625
1541872387985175,1.5,-10.6875,67.8125
1541872388006202,2.75,-9.6875,66.625
1541872388023206,4.75,-9.8125,65.125
1541872388045215,3.5625,-10.0625,64.875
1541872388066251,1.875,-10.375,64.875
1541872388083264,1.4375,-10.1875,65.0625
1541872388105263,-1.9375,-10.25,65.875
1541872388126336,-1.375,-8.1875,64.625
1541872388142313,-0.5,-7.125,61.9375
1541872388165332,-1.5,-8.75,62.25
1541872388186350,-5.1875,-9.875,63.3125
1541872388210369,-5.875,-9.1875,61.8125
1541872388225366,-2.0625,-8.125,60.125
1541872388246399,0.75,-9.375,59.4375
1541872388262403,-1.8125,-9.5,58.75
1541872388285432,-4.8125,-9.5625,58.6875
1541872388306449,-4.25,-9.9375,58.625
1541872388322462,-4.25,-10.0625,59.1875
1541872388345480,-2.1875,-10.5,59.5
1541872388367490,0.25,-9.125,58.8125
1541872388382512,-1.625,-9,57.4375
1541872388405531,-0.375,-10.6875,58.3125
1541872388427539,3.3125,-11.5,59.25
1541872388442562,5.875,-12,59.875
1541872388465581,5.4375,-10.0625,56.5625
1541872388487584,3.0625,-9.3125,52
1541872388508617,1.4375,-11.0625,49.5
1541872388525631,-0.625,-13.125,47.4375
1541872388547630,-3.875,-13.3125,44.1875
1541872388568664,-4.375,-14.0625,43.125
1541872388585679,-4.6875,-12.625,39.5625
1541872388607692,-7.0625,-13.3125,39.25
1541872388628715,-6,-12.75,37.1875
1541872388645728,-6.6875,-14.4375,38.4375
1541872388667728,-6.9375,-12.875,36.75
1541872388688764,-5.5,-12.125,36
1541872388705774,-3.5,-11.4375,36.8125
1541872388735811,-1.6875,-9.0625,34.5
1541872388748813,1.0625,-7.3125,30.1875
1541872388765808,-1,-8.875,27.125
1541872388787828,-4.6875,-9.875,25.4375
1541872388808863,-7.25,-9.5,24.8125
1541872388824875,-4.25,-8.9375,24.0625
1541872388830880,-3.0625,-8.625,23.25
1541872388852899,-6.0625,-10.0625,25.5625
1541872388875917,-7.75,-10.3125,26.8125
1541872388890930,-6.5625,-10.5625,28.9375
1541872388912930,-6,-9.6875,28
1541872388935968,-3.75,-9.1875,26.375
1541872388950979,-4.375,-9.9375,26.125
1541872388973034,-6.5625,-11,25.6875
1541872388996016,-7.375,-9.125,22.3125
1541872389011030,-8,-9.4375,21.1875
1541872389033030,-10.3125,-10.0625,21.9375
1541872389056067,-9.6875,-10.75,22
1541872389071080,-8.375,-11.75,23.6875
1541872389093097,-7.9375,-11,22.1875
1541872389116116,-6.0625,-10.4375,20.875
1541872389131166,-4.8125,-9.25,18.4375
1541872389153130,-4.1875,-7.5625,17.4375
1541872389176165,-5.5625,-6.875,16.4375
1541872389191178,-5.0625,-5.875,15.3125
1541872389213196,-2.9375,-5.0625,15.3125
1541872389231211,-1.875,-3.25,14.25
1541872389251221,-0.8125,-2.1875,13.5
1541872389273245,-1.0625,-0.8125,10.75
1541872389290252,-0.0625,-0.5,8.6875
1541872389311262,0.375,0.625,5.125
1541872389333278,0.75,-0.125,4.125
1541872389351290,0.5,0.375,1.5
1541872389370326,0,0.25,0.3125
1541872389393343,-0.125,-0.625,-0.0625
1541872389411343,-0.375,-1.6875,0.5625
1541872389430375,-0.5,-2.125,0.625
1541872389453394,-0.4375,-1.3125,-0.8125
1541872389471408,-0.5,-1,-1.4375
1541872389490459,-1.875,-2,-1.75
1541872389513443,-0.9375,-2.3125,-0.75
1541872389531459,-1.0625,-2,-0.875
1541872389550473,-0.8125,-0.4375,-2.125
1541872389573476,0.0625,-0.6875,-0.75
1541872389591508,-0.9375,-0.25,-0.625
1541872389610523,0.5,0.1875,-1
1541872389633542,-0.6875,0.25,-0.1875
1541872389651552,-0.5,0.4375,0.625
1541872389670573,0.625,0.6875,0.625
1541872389693592,0.875,-0.125,1.3125
1541872389711617,0.4375,-0.875,1
1541872389730623,1.25,-0.25,-1.0625
1541872389753676,0.8125,-0.375,-0.5
1541872389771656,-0.625,0.0625,-0.4375
1541872389790706,-0.4375,0.0625,0.5
1541872389813726,0.125,0.4375,-0.3125
1541872389831702,-0.5,0.125,-0.875
1541872389850721,-0.625,-0.25,-1.3125
1541872389873740,-0.3125,-0.125,-2.1875
1541872389891736,0.3125,-0.1875,-1.5625
1541872389912768,0.5625,0.5,-3.3125
1541872389933786,1,0.75,-3.8125
1541872389950803,-0.1875,0.375,-3.1875
1541872389971821,0.0625,0.5,-3.1875
1541872389993820,0.4375,0.4375,-2.375
1541872390010891,1.625,0.3125,-2.25
1541872390032867,1.9375,0,-3.1875
1541872390048884,2.5,-0.4375,-4.75
1541872390070901,3,-0.1875,-7.4375
1541872390091914,4.1875,1.125,-11.4375
1541872390108933,4.3125,2.125,-15.9375
1541872390130943,4.5625,2.125,-18.8125
1541872390153972,4.6875,2.4375,-21.8125
1541872390172987,6.25,3.625,-25.25
1541872390190983,9.1875,5.9375,-31.3125
1541872390211999,9.1875,4.875,-36.3125
1541872390233036,7.4375,4.0625,-38.125
1541872390251041,5.5625,4.3125,-40.375
1541872390273051,6.125,6,-44.6875
1541872390294083,8.375,8.4375,-49.75
1541872390310098,9.125,9.875,-54.125
1541872390333119,6.5,10,-55.9375
1541872390354171,2.0625,10.4375,-56.9375
1541872390370146,2.1875,13.0625,-61.0625
1541872390393170,4.875,14.5,-64.9375
1541872390414220,6.75,12.6875,-67.625
1541872390430187,4.6875,8.5,-67.9375
1541872390453217,0.875,6.1875,-68.5625
1541872390474235,-1.75,7.0625,-69
1541872390490231,-0.4375,8.25,-70.625
1541872390513286,2.75,7.125,-71.0625
1541872390534319,-0.0625,5.0625,-68.5
1541872390550278,-4.3125,5.75,-66.625
1541872390579321,-2.375,9,-66.6875
1541872390594333,4.5625,12.375,-70.4375
1541872390610327,8.875,11.4375,-72.0625
1541872390633365,5.875,7.625,-71.3125
1541872390654384,-2.25,7.6875,-68.9375
1541872390670378,-5.1875,10.25,-69.4375
1541872390693415,-0.3125,11.625,-70.75
1541872390714433,5,9.375,-68.75
1541872390730427,6.75,6.25,-68.125
1541872390753500,6.5,5.125,-68.125
1541872390774464,7.125,5.1875,-71.0625
1541872390790477,1.8125,6.625,-74.5625
1541872390813507,-1.4375,8.25,-78.0625
1541872390834532,0.0625,6.875,-79.125
1541872390850536,1.625,4.8125,-77.3125
1541872390873545,0.125,5.875,-76.1875
1541872390894567,-4.1875,6.1875,-75
1541872390910594,-5.4375,6,-71.5625
1541872390932612,-1.25,6.875,-70.9375
1541872390953626,0.9375,4.8125,-67.6875
1541872390970625,-1.75,3.3125,-68.1875
1541872390992662,1.375,1.5625,-63.5
1541872391013683,8.0625,1,-62.25
1541872391029673,11.875,0.3125,-61.0625
1541872391052705,8.25,-2.125,-60.4375
1541872391073728,1.875,-2.8125,-56.5
1541872391089722,-3.75,-0.125,-54.875
1541872391112751,-0.3125,3,-53.3125
1541872391133778,2.125,3.3125,-53.9375
1541872391149773,0.25,1.8125,-54.1875
1541872391172791,-0.3125,1.4375,-54.3125
1541872391193828,0.8125,2.75,-54.875
1541872391209831,-0.8125,3.3125,-54.375
1541872391232842,-3.1875,5,-54
1541872391262875,-2.5625,6.5625,-55.125
1541872391269872,-1.125,5.375,-56.625
1541872391292897,0.8125,3.5625,-54.6875
1541872391315928,-1.5,4.4375,-55.5
1541872391329921,-2.5625,6.0625,-56.5
1541872391352939,-1.3125,6.5625,-56.875
1541872391375977,-2.5,3.3125,-55.9375
1541872391396995,-3.75,1.5625,-53.3125
1541872391412989,-2.5,3,-52.3125
1541872391436027,-1.125,3.625,-50.4375
1541872391457045,-0.75,3,-48.5625
1541872391473039,-2.9375,2.5,-48.125
1541872391496074,-1.0625,3.9375,-48.0625
1541872391517088,-3,3.3125,-49.375
1541872391533089,-2.75,3.1875,-48.875
1541872391556118,-2.375,5.1875,-49
1541872391577135,-3.6875,6.5,-48.5625
1541872391593157,-4.375,6.9375,-48.5625
1541872391616157,-4,7.0625,-48.8125
1541872391636193,-2,6.625,-49.5
1541872391653188,-1.5,6.75,-49.75
1541872391675258,-1.625,7,-49.8125
1541872391696241,-3.625,6.9375,-49
1541872391713237,-5.0625,5.9375,-47
1541872391735267,-4.9375,5.625,-43.5
1541872391756292,-4.6875,5.0625,-39.375
1541872391773301,-3.9375,3.5625,-34.3125
1541872391795331,-3.0625,2.9375,-28.1875
1541872391816341,-3.8125,2.0625,-23.875
1541872391833354,-2.9375,2,-20.25
1541872391855354,-4.4375,2.375,-16.375
1541872391876390,-7.75,3.1875,-12.375
1541872391893404,-9.8125,4.25,-9.375
1541872391915403,-7.0625,3.5625,-5.9375
1541872391936475,-0.375,2.125,-3.9375
1541872391953454,4.0625,0.9375,-3.75
1541872391975463,4.4375,1.5625,-3.625
1541872391996489,2.875,2.375,-1.9375
1541872392013502,1.4375,2,-0.125
1541872392035503,0.6875,2.5,1.3125
1541872392056574,-0.4375,2.6875,2.125
1541872392073588,0.125,2.75,1.5625
1541872392095551,0.875,2.8125,1.25
1541872392116588,0.6875,1.9375,1.125
1541872392133639,2.5,1.25,-0.5
1541872392155601,3.125,1.1875,-2.375
1541872392178633,2.6875,1,-4.6875
1541872392193645,0,1.6875,-6.25
1541872392215658,-1.6875,1.625,-7.0625
1541872392245676,0.6875,1.25,-7.3125
1541872392253727,1.0625,0.5625,-6.875
1541872392275710,1.6875,-0.0625,-7.0625
1541872392298726,1.8125,-0.25,-7.5
1541872392312749,0.6875,-1.1875,-7.125
1541872392335769,1.6875,-1.8125,-6.1875
1541872392357770,2.25,-2.0625,-4.8125
1541872392372799,3.25,-2.5,-3.3125
1541872392395817,0.6875,-2,-2.3125
1541872392417871,-4.25,-2,-0.0625
1541872392432848,-9.75,-2.125,4.0625
1541872392455867,-16.375,-4,10
1541872392477876,-18.25,-4.375,17.8125
1541872392498886,-15.1875,-3.8125,25.8125
1541872392515934,-16.9375,-5.4375,35.125
1541872392537926,-16.1875,-5.6875,43.0625
1541872392558989,-15.75,-7.3125,49.3125
1541872392575984,-16.5,-10.25,53.9375
1541872392597976,-17.5625,-12.3125,56.75
1541872392619002,-17.0625,-11.75,58.9375
1541872392636016,-10.875,-9.5,64.5
1541872392658024,-4.6875,-5.8125,71.125
1541872392679051,-2.8125,-4.3125,77.375
1541872392695050,-4,-3.3125,80.6875
1541872392718063,-3.5,-1.4375,82.625
1541872392739100,-2.5,-1.5,85.8125
1541872392756116,-1.25,-3.625,88.8125
1541872392778114,-2.4375,-4.8125,91.5625
1541872392801153,-0.125,-3.3125,91.75
1541872392816165,3.875,-2.125,91.375
1541872392839183,-0.25,-7,93
1541872392859200,-8.5625,-11.75,95.25
1541872392875213,-12.25,-9.4375,95.625
1541872392898221,-7.875,-6.3125,94.625
1541872392919249,-3,-5.125,93.1875
1541872392935263,-4.5,-7.125,91.3125
1541872392958266,-4.125,-8.9375,89.4375
1541872392979298,-0.9375,-11.5625,87.3125
1541872392995329,2.3125,-12.9375,84.8125
1541872393018320,0.625,-14.875,83.5
1541872393039384,1.375,-14.0625,81.75
1541872393055381,1.3125,-14.625,78.5625
1541872393078381,2.0625,-15.875,77.375
1541872393100440,1.5,-17.0625,74.8125
1541872393115412,0.5,-16.625,71.6875
1541872393138411,0.3125,-15.9375,70.875
1541872393160441,-2,-13.8125,69.0625
1541872393175461,-0.5625,-13.875,69.5625
1541872393198497,1.625,-15.375,71.375
1541872393220511,3.25,-16.6875,73.5
1541872393242516,2.6875,-17.9375,72.375
1541872393244513,4.3125,-18.5,72.8125
1541872393263568,3.5,-17.9375,73.0625
1541872393286553,0.5625,-16.3125,73.125
1541872393304567,-2.3125,-16.1875,73.5625
1541872393323582,-1.8125,-15.4375,73.4375
1541872393346602,-2.0625,-11.8125,70.25
1541872393362597,0.375,-8.5,69.6875
1541872393383631,0.1875,-10.375,68.1875
1541872393406650,1.5625,-16.9375,72.875
1541872393422645,-1.125,-21.0625,75.3125
1541872393443682,-5,-23.0625,73
1541872393466697,-9.0625,-24.5,72.0625
1541872393482715,-7.1875,-25.5,67.625
1541872393503732,-2.1875,-22.9375,63.0625
1541872393526740,-1.6875,-20.25,56.25
1541872393543763,-2.5,-18.5625,51.75
1541872393566783,-4.75,-19.0625,50.4375
1541872393585798,-5.875,-16.625,46.75
1541872393602804,-5.5,-12.875,41.4375
1541872393623830,-2.125,-10.8125,38.75
1541872393645848,-4.75,-11.6875,37
1541872393662862,-9.3125,-9.4375,33.5625
1541872393683879,-8.3125,-9.125,30.9375
1541872393705897,-5.9375,-11.1875,31.875
1541872393722911,-5.8125,-12.125,30.0625
1541872393743929,-7.25,-13.9375,29
1541872393765947,-8.125,-16,29.75
1541872393782978,-7.9375,-14,26.5625
1541872393803978,-4.125,-13,25.3125
1541872393825996,-5.4375,-12.5,23.875
1541872393843010,-6.0625,-11.625,23.6875
1541872393864023,-5.3125,-9.25,21.9375
1541872393886045,-6.0625,-9.5625,22.25
1541872393903059,-7.3125,-8.9375,20.625
1541872393924078,-5.625,-5.875,17.8125
1541872393946095,-4.5625,-6.125,19.4375
1541872393963109,-6.0625,-6.25,18.875
1541872393984127,-6.0625,-7.25,18.875
1541872394006144,-5.625,-8.3125,15.125
1541872394024150,-5.5,-8.25,14.875
1541872394044176,-7.875,-8.4375,15.0625
1541872394066194,-8.1875,-9.375,13.4375
1541872394084210,-8.1875,-10.875,14.1875
1541872394104220,-8.5625,-12.75,13.125
1541872394126246,-8.6875,-14.125,13.5625
1541872394144259,-9.8125,-12.875,11.25
1541872394164267,-9.25,-13.125,11.6875
1541872394187294,-8.8125,-13.25,12
1541872394201302,-8.875,-12.6875,10.6875
1541872394224322,-7.9375,-12.625,10
1541872394241339,-7.3125,-10.4375,6.6875
1541872394264358,-5.375,-8.9375,5
1541872394283373,-4.75,-7.25,4.4375
1541872394301368,-2.9375,-6.125,5.25
1541872394324407,-3.4375,-4.3125,4.0625
1541872394343423,-2.4375,-2.6875,4.625
1541872394361420,-2.0625,-1.0625,6
1541872394384456,-0.0625,0.625,6.3125
1541872394403473,0.625,3.125,4.3125
1541872394421473,1.4375,3.3125,4.3125
1541872394444506,1.625,2.9375,4.0625
1541872394463521,0.4375,3.375,4
1541872394481530,1.3125,4.25,4.75
1541872394504546,1.1875,4.5,5.25
1541872394523571,0.75,2.9375,6
1541872394541567,-0.0625,1.375,5.9375
1541872394564605,-0.8125,0.0625,6.125
1541872394583656,-0.8125,-0.0625,5.75
1541872394601617,-0.25,-0.75,6.75
1541872394624655,0.375,-1.4375,6.5
1541872394645672,-1,-2.25,5.5625
1541872394660665,-0.6875,-2.5625,3.8125
1541872394683721,0.625,-1,1.875
1541872394704723,0.1875,1.75,0.1875
1541872394726739,1.8125,2.75,0.4375
1541872394743753,1.3125,2.1875,-0.0625
1541872394764772,0.125,0.625,0.625
1541872394780763,-0.5,0.3125,0.6875
1541872394803838,-0.5625,0.5,1
1541872394824854,-1.625,-0.75,2.8125
1541872394840812,-2.25,-2.1875,5.125
1541872394863851,-2.3125,-2.375,4.125
1541872394884868,-2.75,-3.875,5.625
1541872394900863,-3.375,-4.125,6.3125
1541872394923937,-3.0625,-4.6875,9.1875
1541872394944919,-0.9375,-4.625,11.625
1541872394959926,3.9375,-3.0625,17.5625
1541872394980947,1.9375,-1.9375,12.125
1541872395003967,1.25,-0.5625,8.1875
1541872395019971,1.125,-0.4375,5.75
1541872395042999,1.5,0.5,2.8125
1541872395064016,1.625,1.625,-0.1875
1541872395080014,1.3125,1.875,-2.1875
1541872395103048,0.25,0.75,-2.1875
1541872395126049,0.5625,-0.5,-0.5625
1541872395140062,0.0625,-0.125,-1.25
1541872395163099,1,0.125,-1.5
1541872395186116,0.625,-0.1875,-0.875
1541872395200123,0.625,0.375,-1.5625
1541872395223148,1.75,0.4375,-0.6875
1541872395246166,1.8125,1.5,-1.4375
1541872395260161,1.375,2.625,-2.5625
1541872395283178,2.375,3.4375,-3.3125
1541872395306217,2.125,3.75,-3.4375
1541872395320224,2.375,4.375,-4.1875
1541872395343243,3.0625,4.125,-5.0625
1541872395366286,1.8125,4.3125,-6.625
1541872395380258,1.8125,3,-6.6875
1541872395403277,0.875,1.25,-5.125
1541872395426310,1.125,0.9375,-4.1875
1541872395440307,0.625,0.6875,-3.625
1541872395463328,-0.1875,-1.0625,-2.25
1541872395486359,-1.625,-2.6875,-0.375
1541872395507381,-2.1875,-3.3125,1.5625
1541872395523382,-1.625,-2.375,3.125
1541872395546414,-1.5,-1.5625,3.4375
1541872395567466,-1.75,-2.4375,6.3125
1541872395583432,-1.8125,-2.125,7.4375
1541872395606498,-0.4375,-1.3125,7.75
1541872395627516,-0.25,-1.125,8
1541872395643474,1.375,0.0625,7.3125
1541872395666512,2.125,1.5625,5.1875
1541872395687530,2.0625,2.0625,2.3125
1541872395704536,1.9375,2.25,-0.6875
1541872395726556,2.6875,3.0625,-4.125
1541872395747581,3.125,3.375,-5.125
1541872395763574,3.75,4.4375,-6.625
1541872395786608,4.125,4,-7.1875
1541872395807629,4.9375,3.5,-6.5
1541872395823633,5.6875,4.0625,-5.9375
1541872395851665,7.0625,5.6875,-5.9375
1541872395866677,8.8125,9.125,-10.25
1541872395882684,12.6875,12.375,-16.5625
1541872395905708,14.125,14,-26.5625
1541872395926726,17.375,14.8125,-33.0625
1541872395942720,20.375,15.8125,-42.25
1541872395965742,24,17.5625,-51.8125
1541872395988761,25.3125,19.625,-62.9375
1541872396002770,23.375,21.5,-76.1875
1541872396025791,24.125,17.375,-82.1875
1541872396048845,18,17.8125,-87.0625
1541872396062821,6.0625,21.1875,-97.25
1541872396085844,3.8125,24.1875,-107.813
1541872396108877,6.6875,21.875,-115.188
1541872396129895,6.5625,20,-107.188
1541872396145898,0.625,19.9375,-107
1541872396168944,-4.375,23.75,-107.188
1541872396189944,-3.375,28.625,-110
1541872396205937,-5.875,21.0625,-105.75
1541872396228977,-7.0625,12.6875,-91.625
1541872396248992,-5.5625,16.625,-87.5625
1541872396265987,2.75,23.0625,-90.1875
1541872396289027,10.0625,26.9375,-95
1541872396310044,4.625,13.1875,-98
1541872396326037,-4.9375,5.125,-87.125
1541872396349073,-10.9375,11.6875,-89.4375
1541872396370073,-1.875,20.6875,-91.875
1541872396386087,7.875,22.0625,-94.625
1541872396409117,6.125,13,-93.75
1541872396430133,-2.625,9.625,-88.9375
1541872396446136,-6.875,12.5625,-89.625
1541872396469155,-2.125,15.75,-92.875
1541872396490178,4.6875,18.3125,-97.75
1541872396506204,7,10.375,-102.875
1541872396528213,5.1875,7.3125,-103.125
1541872396550222,3,10.3125,-105.063
1541872396566250,6.875,13.6875,-106.5
1541872396588274,11.0625,11.375,-106
1541872396609290,8.375,7.3125,-103.313
1541872396626306,2.1875,6.5,-99.9375
1541872396648322,-3.0625,7.5625,-98.125
1541872396669339,-0.3125,8.375,-93.625
1541872396685335,1.875,9.6875,-93.1875
1541872396708368,1.0625,8.0625,-90.9375
1541872396729389,-2.75,6.25,-89.5625
1541872396745383,-2.75,5.4375,-85.8125
1541872396768417,0.8125,6.75,-83.6875
1541872396789439,2.3125,8.5,-76.625
1541872396805442,2.4375,8.375,-71.1875
1541872396828460,-2.5,5.9375,-65.4375
1541872396849483,-0.0625,6.125,-58.0625
1541872396872541,-1.5,6.75,-51.75
1541872396888500,-0.625,7.5,-47.75
1541872396911539,0.25,7.625,-45.1875
1541872396925531,2,6.9375,-43.125
1541872396948549,2.0625,6.625,-40.5625
1541872396971589,0.5,5.9375,-39.125
1541872396985599,1.8125,5.375,-38.9375
1541872397008609,3.8125,5.3125,-44.4375
1541872397031637,4.4375,6.75,-51.25
1541872397052655,0.75,8.4375,-55
1541872397068660,0.625,7.5625,-53.5625
1541872397092687,3.0625,6.6875,-52.125
1541872397112705,4.4375,5.5625,-50.8125
1541872397128699,1.6875,6.5,-50.875
1541872397150717,-3.5,5.9375,-48.1875
1541872397172781,-2,5.1875,-44.125
1541872397188749,2.25,4.0625,-38.4375
1541872397210784,2.6875,2.5625,-31.75
1541872397231803,-0.6875,2.4375,-25.125
1541872397248819,-1.375,2.25,-18.75
1541872397270880,-0.875,1.5,-11.25
1541872397291852,-2.375,0.75,-3.75
1541872397308866,-4.5,0.9375,3
1541872397330882,-6.6875,0.375,8.8125
1541872397345896,-9.6875,0.25,12.875
1541872397368915,-7.6875,-0.125,16.25
1541872397390931,-7,-0.25,19.6875
1541872397411951,-7.8125,-1.0625,24.0625
1541872397428964,-10.125,-3,30.25
1541872397450979,-13.375,-5.5,37.5
1541872397472036,-16.5,-10.0625,47.4375
1541872397489015,-16.9375,-10.4375,55
1541872397511026,-9.3125,-11,60.75
1541872397532050,-4.3125,-12.625,63.1875
1541872397549064,-4.1875,-12.8125,63.3125
1541872397571079,-6.625,-11.0625,62.9375
1541872397592099,-9.4375,-10.8125,62.375
1541872397608094,-12.75,-11.75,63.25
1541872397616115,-13.5,-11.8125,67.0625
1541872397637132,-8.875,-12.5625,70.625
1541872397659190,-5.75,-12,76.3125
1541872397674167,-1.625,-13.125,81.0625
1541872397696184,-1.3125,-13.875,86.4375
1541872397719204,-2.875,-13.6875,91.4375
1541872397734217,-1.5,-13.875,95.5
1541872397756235,3.1875,-14.0625,98.1875
1541872397779290,3.75,-12.8125,99.125
1541872397794266,2.1875,-11.6875,99.6875
1541872397816265,2.3125,-11.875,100.875
1541872397839303,3.125,-12,100.75
1541872397854316,2.875,-11.8125,100.813
1541872397876334,3.4375,-12.0625,100.375
1541872397899353,2.1875,-11.875,100.813
1541872397914365,0.75,-10.5625,101.063
1541872397936384,-0.0625,-10.375,100.125
1541872397959402,1.4375,-12.3125,100.063
1541872397974414,2.625,-13.3125,100.625
1541872397996433,5.5,-12.4375,98.5
1541872398019451,7.3125,-12.9375,95.6875
1541872398034464,8.625,-15.5625,95.125
1541872398056462,11.875,-15.75,96.5625
1541872398079501,13.5625,-14.5,95.4375
1541872398097516,10.25,-15.75,93.125
1541872398116531,7.6875,-15,94.6875
1541872398139550,5.1875,-14.125,94.25
1541872398154546,0.5,-13.5625,97.1875
1541872398176616,0.25,-11.125,98.25
1541872398199637,0.6875,-11.0625,97.5625
1541872398214613,1.875,-16,98.25
1541872398236613,2.4375,-16.8125,96.3125
1541872398259692,0.875,-20.3125,93.6875
1541872398274663,0.125,-22.125,90.3125
1541872398296680,-0.875,-25.75,86.3125
1541872398319697,0.0625,-25.1875,82.875
1541872398334704,0.125,-26,78.5
1541872398356730,0.5625,-26.375,73.125
1541872398379745,0.1875,-28.3125,66.875
1541872398394758,-2.5625,-30.3125,61.75
1541872398416779,-4.4375,-31.875,58.625
1541872398434774,-3.6875,-30.9375,56.625
1541872398455803,-2,-30,53.3125
1541872398477854,-0.4375,-29.5,52.875
1541872398494832,-3.25,-28.6875,54
1541872398515863,-6.4375,-29.5625,60.125
1541872398536877,-8.25,-27.75,65.5
1541872398554910,-9,-23.75,65.8125
1541872398575910,-6,-24,67.9375
1541872398596927,-6.375,-25.3125,68.75
1541872398614943,-9,-27.625,69.5625
1541872398635959,-9.25,-26.875,69
1541872398656977,-5.875,-25.75,67.3125
1541872398674987,-2.625,-26,66.375
1541872398702014,-4.5625,-26.375,64.6875
1541872398717025,-5.5625,-26.0625,65.625
1541872398735041,-5.6875,-26.375,64.4375
1541872398756058,-7.8125,-24.5,60.125
1541872398777059,-5.25,-21.6875,57.3125
1541872398795126,-5.625,-20.5625,54.125
1541872398817090,-8.625,-20.8125,52.875
1541872398837125,-11.6875,-18.8125,51.625
1541872398855141,-11,-17.125,51.8125
1541872398877154,-9.25,-16.5625,47.0625
1541872398897175,-11.75,-17.1875,43.6875
1541872398915185,-9.375,-16.125,39.5
1541872398937188,-7.4375,-16.375,38.0625
1541872398957224,-7.125,-17,37.25
1541872398975230,-9.125,-16.125,34.3125
1541872398997238,-11.5,-14,31.5
1541872399017274,-11.375,-13,30.8125
1541872399035272,-10.375,-10.1875,31.625
1541872399057308,-12.5,-5.9375,28.1875
1541872399077323,-11.5625,-4.5625,28.25
1541872399094338,-12.8125,-5.375,29
1541872399116336,-14.75,-5.5625,27.4375
1541872399137374,-11.875,-4.8125,25.6875
1541872399154391,-11.75,-5.5,24.625
1541872399176386,-13.0625,-7.4375,22.375
1541872399197422,-14.25,-10.6875,23.25
1541872399214417,-16.5625,-13.625,23.875
1541872399236436,-16.6875,-13.0625,21.8125
1541872399257472,-15.25,-14.1875,21.5
1541872399274468,-14.4375,-15.375,21.3125
1541872399296499,-15.875,-16.3125,19.375
1541872399317521,-15.9375,-18.0625,20.0625
1541872399333534,-13.4375,-17.875,19.75
1541872399356552,-12.9375,-14.8125,15.3125
1541872399377570,-12.75,-14.0625,15.75
1541872399393579,-10.625,-12.1875,13.625
1541872399416598,-10.1875,-9.9375,11
1541872399437620,-10.25,-8.5,9.8125
1541872399453624,-9.0625,-6.875,9
1541872399476652,-7,-5.6875,6.4375
1541872399497652,-6.875,-5.625,5.5625
1541872399513682,-5.625,-5,5.75
1541872399536703,-5.0625,-4.3125,6.625
1541872399557719,-4.875,-3.25,6.875
1541872399573715,-2.1875,-1.25,7.25
1541872399596751,-1.75,0.375,6.1875
1541872399617768,-1.8125,0.9375,4.875
1541872399633772,-2.125,0.3125,5.875
1541872399656801,-2.4375,0.0625,7.125
1541872399677817,-2.1875,0.3125,7.0625
1541872399693814,-0.5,0.3125,6.5625
1541872399716851,-0.3125,-1.375,5.8125
1541872399739872,-2.625,-2.9375,5.75
1541872399753860,-1.625,-3.25,9
1541872399776883,-0.875,-3.875,12.6875
1541872399798909,0.4375,-2.8125,13.9375
1541872399813921,2.0625,-2.9375,14.375
1541872399836993,2,-3.75,14.125
1541872399858959,1.75,-2.8125,12.625
1541872399872962,2.4375,-0.9375,9.6875
1541872399897033,3.4375,0.4375,7.0625
1541872399919000,3.375,0.6875,4.5
1541872399933029,2.8125,0.25,2.3125
1541872399957045,2.1875,1.5625,-0.4375
1541872399979066,2.0625,2.3125,-1.9375
1541872399993058,0.0625,1.875,-2.9375
1541872400016096,-0.3125,2.25,-3.5625
1541872400039116,-0.6875,1.5625,-3.25
1541872400053124,-2.0625,1.3125,-1.6875
1541872400076145,-2.375,1.125,-0.75
1541872400099150,-1.6875,0.5625,1.125
1541872400113158,-1.625,0,1.875
1541872400144201,-1.125,-0.5625,1.25
1541872400159208,-1.5625,-0.875,1.3125
1541872400173206,-1.0625,-0.375,1.25
1541872400196232,-0.4375,0.0625,1.8125
1541872400219264,0.4375,1,1.125
1541872400240281,0.25,1.4375,0.0625
1541872400256276,0.0625,1.1875,0.0625
1541872400279304,0.4375,1.4375,0.125
1541872400300326,1.0625,1.625,-0.0625
1541872400316338,0.6875,1.8125,-0.875
1541872400339365,0.3125,1.6875,-0.75
1541872400360415,0.5,2.1875,-0.6875
1541872400376376,0.1875,2.0625,-0.875
1541872400399416,-0.4375,1.9375,-0.8125
1541872400420464,-0.375,2,-0.75
1541872400436433,-0.4375,1.75,-0.375
1541872400459461,0.25,2.3125,-1.375
1541872400480480,0.75,2.0625,-1.8125
1541872400496483,0.75,1.875,-3.25
1541872400519511,-0.1875,1.75,-4.1875
1541872400540529,0.4375,2.9375,-4.375
1541872400556526,2.4375,4.1875,-5.125
1541872400579561,4.125,5.6875,-6.8125
1541872400600579,5.9375,6.3125,-6.125
1541872400616572,7.1875,7.5625,-7.125
1541872400639603,8.8125,10.0625,-8.9375
1541872400661628,11.25,12.1875,-8.6875
1541872400675643,12.3125,13.75,-8.875
1541872400698659,14.4375,16.125,-12.1875
1541872400721659,14,18.3125,-17.25
1541872400735672,12.6875,19.25,-19.1875
1541872400758708,11.9375,17.8125,-18.4375
1541872400781708,11.5,15.25,-17.375
1541872400795737,11.9375,14.4375,-19.8125
1541872400818755,10.6875,14.5625,-23.4375
1541872400841777,12.6875,14.1875,-24.5
1541872400862794,13.5,14.125,-26.4375
1541872400878824,14.125,15.3125,-27.25
1541872400901822,14.25,16.1875,-28
1541872400922880,15.4375,18.75,-31.3125
1541872400938853,16.125,20.875,-35.1875
1541872400961878,17.1875,20.375,-34.9375
1541872400982892,16.375,21.875,-37.4375
1541872400998899,17.3125,22.8125,-39.625
1541872401021926,22.4375,23.1875,-41.3125
1541872401042978,21.75,25.1875,-47.375
1541872401058946,20.5,24.125,-52.25
1541872401081975,17.5,24.6875,-59.9375
1541872401103028,16.9375,24,-63.0625
1541872401125010,21.3125,22.9375,-61.625
1541872401142024,21.5625,20.25,-67.0625
1541872401163041,13.9375,19.1875,-76.25
1541872401179036,10.5625,21,-82.25
1541872401202075,12.5625,22.4375,-84.3125
1541872401223126,11.375,21.6875,-80.9375
1541872401239085,9.6875,20.9375,-80.4375
1541872401262123,8.4375,23.125,-86
1541872401283141,6.3125,23.125,-88.3125
1541872401299135,5.8125,22.375,-87.4375
1541872401322153,5.875,22.125,-88.6875
1541872401343190,5.25,21.4375,-96.25
1541872401359186,4.25,17.75,-103.063
1541872401381258,4.8125,11.3125,-100.375
1541872401402234,7.125,10.25,-99.6875
1541872401425258,5,13.1875,-102.125
1541872401441307,-3.1875,18.625,-108
1541872401462288,-9.4375,20.25,-109.063
1541872401478291,-7.0625,15.25,-103.875
1541872401501358,-4.1875,13.8125,-96.9375
1541872401522337,-3.875,17.0625,-99.125
1541872401538341,-5.875,20.75,-102.313
1541872401561361,-6.875,15.75,-97.875
1541872401582388,-5,13.5,-91.0625
1541872401598380,-3.5625,16.375,-84.3125
1541872401621410,-6.5625,21,-84.5625
1541872401644441,-10.875,15.5625,-86.1875
1541872401658431,-7.25,9.4375,-83.375
1541872401681452,-3.5,9.25,-83.3125
1541872401704488,-1.9375,13.5,-84.6875
1541872401718480,1.1875,15.6875,-86.8125
1541872401741505,-1.375,13.75,-91.0625
1541872401764533,0.5625,8.1875,-87.5
1541872401785590,4.8125,10.25,-91.875
1541872401801558,2.8125,13.25,-91.625
1541872401824587,-2,15.125,-93
1541872401845604,-1.9375,12.625,-93.625
1541872401861597,2.25,8.875,-94.4375
1541872401884637,5.5,9,-95.1875
1541872401905653,3.875,8.625,-93.375
1541872401921647,-4.5,10.6875,-90.5625
1541872401944719,-6.0625,11,-89.4375
1541872401965703,-6.25,7.1875,-91.1875
1541872401981698,-6.75,3.5625,-90.8125
1541872402004770,-2.4375,3.5,-87.4375
1541872402009740,-1.3125,6.8125,-87.4375
1541872402031793,-3.3125,8.5,-86.0625
1541872402046771,-8.8125,5.625,-84.0625
1541872402069788,-8.125,6.375,-83.9375
1541872402091807,-2.625,6.9375,-83.125
1541872402106819,-3.5625,7.4375,-84.5625
1541872402129874,-3.375,9.125,-87.6875
1541872402151856,-5.6875,12.1875,-90.125
1541872402166869,-3.5625,15.4375,-91.6875
1541872402189888,-0.5,17.0625,-89.8125
1541872402211905,-2.1875,17.4375,-86.125
1541872402226918,-5.0625,17.25,-81.1875
1541872402249938,-5.875,15.9375,-74.25
1541872402271955,-5.5625,14.4375,-67.25
1541872402286968,-7.375,13.3125,-58.6875
1541872402309987,-7.875,12.3125,-50.0625
1541872402328001,-8.4375,10.1875,-45.0625
1541872402347016,-4.25,10.9375,-46.125
1541872402370035,-3.0625,13.1875,-46.25
1541872402388051,-4.0625,14.5,-41.3125
1541872402407062,-5,14.8125,-36.875
1541872402437091,-2.1875,13.3125,-30.75
1541872402448092,0.1875,12.1875,-24.6875
1541872402467116,-5.25,10.8125,-18.8125
1541872402497141,-9.625,9.625,-14.125
1541872402508134,-8,9.0625,-10.5
1541872402527161,-10.0625,7.8125,-6.5625
1541872402550175,-10.0625,7.1875,-3.25
1541872402567199,-12.375,5.8125,-0.125
1541872402587216,-9.0625,4.4375,1.8125
1541872402610221,-4.1875,3.375,2.4375
1541872402627248,-7.0625,2.5625,3.75
1541872402647264,-9.625,1.6875,4.6875
1541872402669283,-4.5625,1.1875,4.25
1541872402687289,-1.625,0.4375,3.875
1541872402707309,-0.1875,-1.0625,4.4375
1541872402729332,5.125,-3.0625,4.125
1541872402747344,18.3125,-4.75,4.1875
1541872402767363,13.8125,-5.4375,6.875
1541872402789382,-0.75,-6.25,10.75
1541872402807377,-10.875,-7.5,15.3125
1541872402827414,-10.375,-9.625,22
1541872402849431,-8.3125,-12.0625,30.625
1541872402867428,-12.625,-16.0625,40.25
1541872402887465,-21.25,-18.3125,48.875
1541872402909481,-20.75,-19.5,56.5
1541872402927475,-11.1875,-20.875,62.25
1541872402947511,-5.125,-20.5,66.75
1541872402969513,0,-18.8125,71.8125
1541872402987540,3.75,-17.125,77.375
1541872403007561,4,-16.75,82.75
1541872403029574,2,-18.75,90.4375
1541872403053595,4.5,-18.8125,97.25
1541872403067611,6.625,-17.5625,101.438
1541872403089629,5.4375,-17.0625,105.813
1541872403107625,3.125,-15.3125,108
1541872403127660,0,-15.8125,108.813
1541872403149714,2.1875,-16.875,112.438
1541872403167693,1.3125,-17.0625,115.313
1541872403188702,0.625,-16.1875,119.063
1541872403209728,1,-15.875,121.875
1541872403227742,-1.25,-19.5,125.75
1541872403248761,2.125,-21.1875,129.188
1541872403269777,5.5625,-21.125,132.438
1541872403287793,3.625,-23.875,134.938
1541872403308806,2.1875,-23.75,132.688
1541872403329827,2.8125,-25.625,129.5
1541872403347841,5.1875,-26.3125,130.5
1541872403368859,5.1875,-25.75,127.563
1541872403389912,5.3125,-24.5625,121.313
1541872403407876,5.9375,-25.0625,117.563
1541872403428908,7.1875,-28.875,113.063
1541872403450916,10.125,-32,107.813
1541872403466927,11.25,-35.3125,103.688
1541872403488958,11.4375,-36.25,96.125
1541872403509977,15.8125,-37.0625,90.75
1541872403526989,14.625,-37.625,86.3125
1541872403548991,8.3125,-37.75,85.3125
1541872403570024,-2.25,-34.3125,85.0625
1541872403587038,-1.625,-31.125,85.75
1541872403609091,6.375,-30.9375,85.375
1541872403630074,2.4375,-33.5,85.1875
1541872403647088,-7.5,-34.3125,83.625
1541872403669107,-6.0625,-33.25,82.4375
1541872403690124,1.25,-33.75,79.1875
1541872403707137,1.3125,-32.1875,77.9375
1541872403729139,-3.0625,-31.4375,77.5625
1541872403750174,-5.25,-29.75,76.5
1541872403767187,-6.375,-27.75,76.1875
1541872403789190,-1.4375,-23.75,73.4375
1541872403810223,-1.375,-24,70.125
1541872403827237,-3.1875,-23.5625,70.9375
1541872403849240,-4.875,-22.875,67.625
1541872403870271,-4.4375,-21.3125,65.3125
1541872403887286,-3.0625,-19.125,62.4375
1541872403909295,-0.75,-18.875,61.875
1541872403930321,0.3125,-17.8125,62.6875
1541872403947336,-3.375,-15.5,59.5625
1541872403969349,-4.25,-15.1875,57.1875
1541872403990378,-2,-16.0625,52.3125
1541872404007385,-2.0625,-16.0625,49.0625
1541872404029394,-4.75,-15.0625,47.625
1541872404050421,-6.875,-12.5625,44.3125
1541872404067429,-4.125,-11.0625,39.125
1541872404089434,-5.6875,-11.375,33.25
1541872404110470,-8.25,-13.4375,32.0625
1541872404127471,-12.125,-13.6875,29.375
1541872404149483,-11.3125,-13.125,28.0625
1541872404170520,-11.0625,-12.5,26.625
1541872404186532,-8.5625,-12.8125,24
1541872404209551,-9.4375,-14.5,21.8125
1541872404230603,-11.125,-17.375,22.375
1541872404246583,-12.5,-17.6875,19.375
1541872404269583,-11.0625,-18.0625,20.0625
1541872404290618,-12.5,-17.8125,20.125
1541872404306613,-13.4375,-17.125,21.3125
1541872404329650,-14.5625,-16.5625,22.6875
1541872404350702,-14.1875,-15,20.6875
1541872404366681,-14.1875,-15.375,20.75
1541872404389701,-14.3125,-15.9375,22.5
1541872404411710,-13.1875,-16.125,22.0625
1541872404426730,-11.75,-16.875,22.3125
1541872404456736,-12.9375,-15.375,20.3125
1541872404471750,-9.5,-14.0625,19.6875
1541872404486780,-7.0625,-10.5,16.9375
1541872404509799,-6.0625,-8.75,14.875
1541872404531800,-6.5625,-7.125,13.1875
1541872404552870,-4.5,-4.3125,10.0625
1541872404569849,-2.625,-2.1875,9
1541872404591857,-2,-0.625,9.0625
1541872404606870,-0.125,0.375,7.8125
1541872404629899,1.3125,1.625,5.375
1541872404651897,0.3125,1.0625,5.3125
1541872404666914,0.625,0.625,4
1541872404689948,0.3125,0.5625,4
1541872404711956,-0.4375,0,3.5
1541872404725978,-1.5625,-0.375,2
1541872404749999,-2.875,-1.5,3.625
1541872404772008,-2.6875,-1.875,6.4375
1541872404786041,-2,-1.6875,7.9375
1541872404810043,-1.25,-0.5625,7.9375
1541872404832054,0.0625,0,7.9375
1541872404846069,0.3125,-0.4375,8.75
1541872404869096,0.3125,-0.8125,8.3125
1541872404892114,1.625,-0.25,7.75
1541872404906123,2.875,0.6875,7.125
1541872404929145,4.5,1.875,5.75
1541872404952164,5.5625,3.4375,3.5
1541872404973216,5.375,4.6875,2.125
1541872404989176,4.375,3.5,1.125
1541872405012204,4,3.125,0.875
1541872405033230,2.0625,3.8125,-0.0625
1541872405049224,1.1875,3.8125,0
1541872405072264,0.6875,3.125,1.0625
1541872405093280,-1.0625,1.8125,1
1541872405109274,-1.3125,0.1875,1.875
1541872405132295,-2.0625,-0.8125,3.6875
1541872405153329,-1.4375,-1,4.125
1541872405169339,-0.1875,-1.9375,7.625
1541872405184352,1.375,-3.0625,10.9375
1541872405205353,1.5625,-2.0625,8.1875
1541872405221367,1.8125,-1.625,6.125
1541872405244385,3.3125,-0.5625,4.9375
1541872405265402,3.4375,1.125,1.9375
1541872405281419,3.875,1.375,0.6875
1541872405304434,2.875,0.8125,-0.3125
1541872405333478,2.0625,1.25,-1.25
1541872405349471,2.5625,2.125,-2
1541872405372493,1.5,2.4375,-2.8125
1541872405393565,0.4375,1.6875,-3.375
1541872405409522,-0.625,1,-2.75
1541872405432559,-1.125,0.5,-1.375
1541872405454568,-1.1875,-0.1875,0.25
1541872405469581,-0.25,0.0625,0.5625
1541872405492603,-0.4375,-0.25,-0.3125
1541872405514612,-0.1875,-0.4375,-0.875
1541872405528632,0.125,-0.1875,-0.625
1541872405552652,0.6875,0.1875,-0.5
1541872405574677,1.1875,0.875,-0.75
1541872405588676,1.875,1.625,-1.75
1541872405611707,1.4375,1.6875,-2.875
1541872405634726,1.4375,1.4375,-2.9375
1541872405648735,0.9375,0.875,-2.875
1541872405671753,0.8125,0.5625,-2.125
1541872405694775,0.4375,0.625,-2
1541872405708778,-0.375,1,-1.5
1541872405731803,-0.625,0.6875,0.0625
1541872405754816,0.125,0.8125,0.9375
1541872405768819,0,1.1875,-0.1875
1541872405791852,1,1.4375,-0.25
1541872405814892,1.125,2,-1
1541872405828866,0.9375,2.8125,-1.875
1541872405851886,0.0625,4.125,-2.5625
1541872405874919,0.1875,4.375,-2.5625
1541872405895977,0.9375,4.8125,-3.3125
1541872405911941,2.125,5.5,-5.5625
1541872405934969,2.5,5.5625,-6.5
1541872405955992,3.125,5.25,-6
1541872405971984,3.4375,5.3125,-5.9375
1541872405995023,4.375,5.5625,-5.1875
1541872406016041,6.3125,6.625,-5
1541872406032033,8.375,8.125,-5.5625
1541872406055071,10.6875,9.9375,-7.5
1541872406076090,12.5625,11.1875,-9.3125
1541872406092084,14.6875,13.625,-13.6875
1541872406115119,16.875,15.8125,-17.875
1541872406136139,18.0625,18.5,-23.6875
1541872406151133,19.4375,20.9375,-29.375
1541872406175206,22,22.6875,-33.875
1541872406196184,23.3125,24.1875,-38.375
1541872406211198,21.625,26.3125,-45.125
1541872406234220,20.5,27.6875,-52.625
1541872406255238,21.5625,28.1875,-57.25
1541872406271241,24,27.5,-60.875
1541872406294270,27.625,26.75,-64.3125
1541872406317288,26.6875,27.25,-71.0625
1541872406331285,25.5625,27.25,-78.3125
1541872406354318,23.625,23,-79.875
1541872406377333,19.875,22.1875,-82.6875
1541872406399398,14.4375,21.5625,-84.9375
1541872406414369,13.9375,23.8125,-93.625
1541872406420373,16.25,18.8125,-90.5625
1541872406442392,15.25,17.1875,-92.75
1541872406459406,8.1875,14,-90.5
1541872406480424,3.75,14.875,-90.3125
1541872406502441,4.6875,19.375,-92.1875
1541872406519456,5.9375,20.5,-90.5
1541872406540473,4.1875,17,-83.9375
1541872406562490,-1,15.1875,-81.5625
1541872406579505,-5.1875,17,-80
1541872406600559,-3.6875,20.625,-81.4375
1541872406622540,2.4375,19.75,-82.3125
1541872406639552,5.0625,14.9375,-80.8125
1541872406660571,2.1875,14.875,-80.5625
1541872406682589,0.25,17.1875,-82.125
1541872406699594,-0.1875,16.25,-86.125
1541872406720616,3.9375,13.0625,-84.25
1541872406742639,-0.875,12.75,-84.375
1541872406758652,-9.875,12.3125,-84.3125
1541872406780666,-10.875,9.875,-84.25
1541872406802684,-5.375,7.625,-78.875
1541872406818743,-1.25,9.6875,-74.4375
1541872406839718,-0.125,12.1875,-72.4375
1541872406862738,0.5625,11.375,-72.75
1541872406878748,2.6875,8.4375,-73.5
1541872406899769,2.25,4.9375,-72.8125
1541872406922787,1,5.6875,-72.125
1541872406938784,4,7.625,-71.0625
1541872406959818,7.625,9.0625,-71.625
1541872406982837,8.625,8,-70
1541872406998830,9.1875,4.3125,-69.3125
1541872407019903,11.8125,2.9375,-68.625
1541872407042887,12.8125,2.9375,-72.0625
1541872407058894,10.5,2,-74.25
1541872407079917,-1.5625,-0.1875,-75.25
1541872407102936,-8.3125,0.75,-74.125
1541872407118940,-1.9375,5.4375,-75.375
1541872407139967,7.8125,5.25,-76.25
1541872407163023,5.0625,3.125,-76.375
1541872407178981,-6.4375,2.9375,-74.4375
1541872407200016,-8.25,3.8125,-72.4375
1541872407223034,-0.125,5.5625,-70.9375
1541872407239029,1.75,6.4375,-69.4375
1541872407260066,-1.625,5.1875,-67.25
1541872407283085,-5.8125,4.0625,-66.5625
1541872407301091,-6.6875,4.0625,-64.0625
1541872407320115,-2.875,3.8125,-62.25
1541872407343116,-6.75,3,-58
1541872407361163,-9.3125,4,-51.3125
1541872407380164,-7.125,5.3125,-46.75
1541872407403166,-5.375,5.1875,-43.875
1541872407420198,-3.6875,4.9375,-42.25
1541872407440194,-2.1875,3.875,-41.6875
1541872407463213,-3.0625,4.1875,-40.3125
1541872407480282,-2.3125,4.5,-39.875
1541872407500264,-5.375,3.8125,-38.9375
1541872407522282,-4.8125,3.25,-39.0625
1541872407540330,-1.25,3.3125,-39.625
1541872407560312,2.1875,3.25,-39.4375
1541872407578328,-0.5625,3.5,-38.375
1541872407600333,-0.8125,4.9375,-37.9375
1541872407620348,0.4375,5.4375,-38.5625
1541872407638376,-0.125,4.375,-39.25
1541872407660392,1.0625,3.5,-39.6875
1541872407680411,0.6875,3.1875,-41.0625
1541872407698426,-0.4375,3.9375,-41.5
1541872407720426,-1.25,4.6875,-41.8125
1541872407740460,-0.6875,5.1875,-41.875
1541872407758476,1.1875,5.5625,-41.375
1541872407780474,1.4375,5.8125,-40.5625
1541872407800546,0.6875,5.75,-38.75
1541872407818525,-1.875,5.5625,-37.25
1541872407839534,-3.875,5.5625,-35.25
1541872407860559,-4.9375,3.5,-32.0625
1541872407876553,-4.1875,2.125,-28.3125
1541872407899573,-1.0625,2.25,-26.4375
1541872407920609,-1.5,2.375,-23.75
1541872407937623,-4.125,2.6875,-20.8125
1541872407959623,-4.375,2.5,-18.125
1541872407980659,-0.6875,1.875,-15.5
1541872407997673,0.5625,1.8125,-13
1541872408019672,0.6875,2.25,-11.3125
1541872408040709,0,3,-9.6875
1541872408064719,-0.5625,3.3125,-8.5625
1541872408079730,1.125,3.4375,-9.125
1541872408100758,2.3125,4.4375,-10.6875
1541872408124762,0.75,5.6875,-11.3125
1541872408139770,-0.5,6.3125,-10.3125
1541872408160842,-0.8125,5.75,-6.625
1541872408177821,-1.3125,4.1875,-0.6875
1541872408199835,-3.1875,2,6.75
1541872408222859,-7.5,0.5,14.5625
1541872408236869,-10.9375,-1.6875,22.0625
1541872408259872,-12.9375,-2.9375,28.1875
1541872408282903,-14,-3.375,33.75
1541872408296919,-14.5,-2.9375,38.9375
1541872408319920,-14.3125,-3,43.5
1541872408342951,-14.4375,-3.125,48.6875
1541872408363984,-15.1875,-2.5,55.5625
1541872408379970,-14.125,-1.3125,62.0625
1541872408401986,-10.75,-1.25,67.6875
1541872408424015,-9.4375,-1.375,73.3125
1541872408440038,-11.375,-1.4375,78.875
1541872408462091,-12.875,0.25,82.6875
1541872408483110,-12.8125,1.0625,85.375
1541872408500080,-13.0625,0.8125,87.125
1541872408522105,-9.9375,0.375,86.4375
1541872408543122,-6.125,-1.3125,87.375
1541872408560136,-5.75,-2.4375,88.0625
1541872408582145,-3.125,-3.9375,89.3125
1541872408603172,-2.25,-4.8125,88.6875
1541872408620186,-0.75,-6.5,90.0625
1541872408642201,-0.1875,-8.25,90.875
1541872408663221,2.5,-9.875,91
1541872408680235,6,-10,93.125
1541872408702248,4.375,-10.1875,93.9375
1541872408723272,1.625,-10.875,96.3125
1541872408740285,-1.5625,-11,98.8125
1541872408762287,-1.8125,-9.6875,98.4375
1541872408783318,0.4375,-11,99.3125
1541872408800369,-2.125,-12.625,101.563
1541872408822343,-5.9375,-12.25,101.25
1541872408843370,-4.1875,-12.875,101.563
1541872408859382,-3.625,-12.5625,100.688
1541872408882389,-2.9375,-12.75,99.5625
1541872408903420,-4.625,-14.5,97.625
1541872408920433,-7.75,-15.125,95.6875
1541872408942443,-6.75,-15.5625,94.6875
1541872408963468,-4.75,-15.75,92.5625
1541872408979482,-4.25,-16.1875,90.8125
1541872409002501,-3.625,-16.1875,88.4375
1541872409023518,-5.0625,-16.625,86.875
1541872409039512,-6.0625,-18.3125,84.125
1541872409062532,-4.0625,-17.875,79.75
1541872409083548,-4.1875,-17.5625,76.625
1541872409099562,-4.5,-17.875,75.6875
1541872409122582,-4.875,-17.75,71.5
1541872409143597,-6.875,-18.3125,70.0625
1541872409159611,-7.3125,-18.375,68.1875
1541872409182646,-6.9375,-17.4375,65.4375
1541872409204648,-7.875,-17,64.5
1541872409219661,-10.875,-17.5,65.8125
1541872409242679,-9.0625,-15,62.75
1541872409264699,-4.25,-15.25,58.8125
1541872409279710,-4.625,-15.25,59.5
1541872409302729,-6.3125,-13.375,59.125
1541872409324748,-4.0625,-10.9375,55.375
1541872409345774,-0.4375,-10.375,52.25
1541872409362778,1.1875,-9.1875,47.9375
1541872409384800,-1.375,-9.3125,45.125
1541872409405833,-4.5625,-9.125,43.5
1541872409422847,-3.3125,-6.9375,41.5625
1541872409444845,-1.375,-6.6875,39.4375
1541872409465883,-1.5625,-8.125,40.6875
1541872409482897,-3.0625,-7.6875,39.6875
1541872409504895,-3.8125,-8.9375,41.125
1541872409525923,-4.125,-7.9375,39
1541872409542927,-2.4375,-7.0625,36.5
1541872409564945,-3.5,-7.4375,34.375
1541872409585967,-3.625,-8,34.875
1541872409602977,-4,-7.1875,31.8125
1541872409624994,-3.625,-6.5625,30.875
1541872409646025,-3.9375,-7,29
1541872409663040,-3.125,-7.6875,27.25
1541872409685043,-3.8125,-8.6875,27.1875
1541872409706061,-5.3125,-7.875,24.3125
1541872409729082,-5.375,-8.1875,22.6875
1541872409745095,-4.6875,-8.375,21.625
1541872409766133,-7.625,-8,20.3125
1541872409782126,-7.1875,-8.5,20.8125
1541872409805144,-6.4375,-7.4375,19.6875
1541872409826180,-7.25,-7.625,20.125
1541872409842188,-7.25,-8.4375,22.5
1541872409865207,-8.0625,-8.3125,22.4375
1541872409886229,-6.0625,-7.9375,20.875
1541872409902222,-5.5625,-8.8125,19.3125
1541872409925254,-5.5625,-11.5625,20.6875
1541872409946278,-7.125,-12.3125,18.4375
1541872409962291,-5.9375,-12.9375,16.0625
1541872409985292,-5.5625,-13.3125,14.6875
1541872410006327,-6.625,-12.8125,11.75
1541872410022341,-8.9375,-11.5625,8.1875
1541872410045359,-7.75,-8.8125,5.8125
1541872410066413,-5.9375,-6.75,3.5625
1541872410082373,-7,-7.0625,4.4375
1541872410105410,-9.0625,-6.375,4.25
1541872410126462,-8.1875,-6.125,5.75
1541872410142432,-7.25,-5.5,6.625
1541872410165459,-7.625,-5.1875,7.5625
1541872410187457,-7.375,-5.125,10.9375
1541872410202469,-6.1875,-4.8125,12.5625
1541872410225543,-5.875,-4.9375,14.5
1541872410247507,-5.5,-4.3125,15.5625
1541872410262519,-4.5625,-3.9375,15.875
1541872410285558,-3.3125,-3.875,15.1875
1541872410307567,-3.625,-3.75,13.3125
1541872410321623,-3.5,-4.4375,12.5625
1541872410345607,-3.8125,-5.4375,11.5625
1541872410367606,-3.625,-5.125,9.4375
1541872410381655,-3.625,-5,7.25
1541872410412654,-3.0625,-5.5625,7.5625
1541872410427657,-3.5,-4.75,5.375
1541872410441679,-1.125,-2.6875,2.375
1541872410464726,-3.375,-2.1875,0.25
1541872410487725,-3.0625,-1.6875,0
1541872410501733,-2.75,-1.3125,0.625
1541872410524755,-2.125,-1.0625,1.125
1541872410547774,-1.3125,-0.5625,1.4375
1541872410561783,-1.6875,-1.1875,2.4375
1541872410584805,-2.25,-1.25,3.5
1541872410607823,-1.875,-0.9375,3.9375
1541872410628842,-1.6875,-1,4
1541872410644835,-1.875,-0.9375,5
1541872410667856,0,0.25,6
1541872410688890,-0.875,-0.6875,4.625
1541872410704885,-1.9375,-1,4.125
1541872410727922,-0.4375,-0.875,3.6875
1541872410748939,0.1875,-0.3125,2.8125
1541872410764939,0.625,-0.125,1.8125
1541872410787990,-0.0625,0,0.9375
1541872410808990,-0.3125,0.25,0.25
1541872410824993,-0.5,0.9375,-0.5625
1541872410831007,-0.4375,0.9375,-0.875
1541872410853025,-1.125,0.375,-1.5
1541872410876028,-0.9375,-0.25,-0.8125
1541872410891057,-2,-0.8125,0.1875
1541872410913075,-1.3125,-0.625,1.6875
1541872410936089,-1.5625,-0.6875,1.625
1541872410951094,-1.875,-1.0625,1.875
1541872410973108,-1.5625,-1.4375,2.1875
1541872410991138,-1.875,-1.1875,1.125
1541872411010155,-2.125,-1.3125,0.9375
1541872411033174,-0.8125,-0.6875,1.3125
1541872411051189,1.1875,0.6875,1.0625
1541872411070204,1.5625,2.125,0
1541872411093223,2.5,1.75,-0.625
1541872411111239,1.1875,1.1875,-2.25
1541872411130254,0.0625,0.625,-2.6875
1541872411153273,0.0625,0.5625,-2.5625
1541872411171283,-0.4375,0.8125,-2.375
1541872411190303,-0.1875,0.875,-1.4375
1541872411213319,-0.0625,0.5625,-0.6875
1541872411231353,0.9375,0.8125,-0.5
1541872411250388,2.25,1.1875,-0.9375
1541872411273372,2.5625,1.8125,-2.75
1541872411291386,3.5,2.125,-4.4375
1541872411310403,3.9375,2.9375,-7.25
1541872411333421,5.125,4.5625,-11.75
1541872411351436,7.625,6.375,-16.75
1541872411370451,12.125,8.875,-21.4375
1541872411393471,16.8125,11.8125,-28.1875
1541872411415489,20.375,15.375,-37.8125
1541872411430501,23.25,17.1875,-47
1541872411453521,25.8125,18.625,-55.875
1541872411475534,26.6875,20.125,-67.5
1541872411490534,27.375,19.1875,-73.5
1541872411513607,22.4375,19.75,-80.625
1541872411531565,21.3125,19.3125,-81.75
1541872411550600,18.0625,22.4375,-87.9375
1541872411573615,13.5625,24.9375,-95
1541872411590634,9.6875,25.1875,-99.9375
1541872411610650,6.375,19.25,-94.5
1541872411633649,3.9375,21,-93.875
1541872411650685,3.625,20.375,-91.5625
1541872411670700,3.5625,14.4375,-86.375
1541872411692717,-4.3125,12.625,-80.3125
1541872411710733,-6.4375,16.375,-76.5625
1541872411731750,1.6875,18.8125,-74.875
1541872411752767,9.625,14.1875,-73.3125
1541872411770775,5.8125,11.375,-69.4375
1541872411791834,-3.5625,11.5625,-67.75
1541872411812816,-4.75,11.5,-67.9375
1541872411830811,2.0625,11.1875,-67.0625
1541872411851829,2.6875,12.3125,-65.8125
1541872411872849,-1.0625,13.25,-62.875
1541872411890877,-2.375,12.1875,-62.625
1541872411911879,-0.5625,10.875,-60.3125
1541872411932915,0,12.8125,-62.0625
1541872411950914,-1.25,12.25,-64
1541872411971929,-0.4375,10.5,-64.125
1541872411992965,0.1875,10.5625,-62.375
1541872412010969,2.0625,12.4375,-61.6875
1541872412033999,5.875,12,-62.6875
1541872412053014,4.875,9.125,-62
1541872412071009,-0.125,8.9375,-62.4375
1541872412094043,-2.6875,9.3125,-62.375
1541872412113100,0.5625,12.375,-65.6875
1541872412131074,5.9375,13.0625,-69.75
1541872412154093,5.625,7.9375,-72.25
1541872412173148,-1.75,6.1875,-69.875
1541872412191109,-4.375,10.125,-68.5
1541872412214162,3,12.0625,-68.5625
1541872412233164,3.0625,10.3125,-69.125
1541872412250157,-1.4375,6.875,-69.125
1541872412273196,-5.125,6.375,-68.25
1541872412294249,-2.6875,7.1875,-66.9375
1541872412310206,3.6875,7.5625,-67.8125
1541872412333245,5.1875,6.375,-69.75
1541872412354263,3.0625,2.3125,-69.6875
1541872412370257,1.125,2.0625,-69.1875
1541872412393325,1.125,3.4375,-68.6875
1541872412414313,2.4375,3.4375,-67.9375
1541872412430306,3.8125,2.0625,-67.875
1541872412453378,2.25,0.75,-67.1875
1541872412474355,0.625,-0.5,-66.625
1541872412490366,0.5,0.5,-65.5
1541872412513403,2.0625,2.3125,-65.0625
1541872412534403,3.5625,2.6875,-66.4375
1541872412550423,1.625,0.625,-69.1875
1541872412573440,-0.3125,-1.125,-67.625
1541872412594451,-0.4375,1.5,-67.375
1541872412610469,4.4375,3.8125,-65.9375
1541872412632492,5.0625,4.5625,-65.8125
1541872412653509,-1.4375,3,-66.5
1541872412670523,-0.625,3.6875,-67.5625
1541872412692542,3.1875,4.125,-66.625
1541872412713558,4.625,4.1875,-66.1875
1541872412730569,2.625,4.8125,-64
1541872412752581,5.1875,4.625,-62.4375
1541872412773608,4.375,4.0625,-60.125
1541872412789601,3.4375,4.9375,-58.3125
1541872412812624,3.8125,5.1875,-57.5625
1541872412833657,3.875,5.125,-58
1541872412849666,4.5,5,-58.375
1541872412872671,3.75,5.375,-59.0625
1541872412893690,2.6875,5.625,-59
1541872412909700,1.4375,5.9375,-57.5
1541872412932729,-0.5625,5.4375,-54.75
1541872412953756,-2.0625,4,-50.875
1541872412969761,-2.5625,3.25,-46.75
1541872412992768,-3.8125,1.1875,-41.6875
1541872413015844,-3.875,1.4375,-35.625
1541872413029799,-6.5,0.8125,-29.625
1541872413052833,-7.6875,0,-24.1875
1541872413075857,-6.9375,-0.9375,-19.3125
1541872413089848,-3.4375,-1.8125,-15.1875
1541872413112868,-2.875,-1.8125,-11.125
1541872413135906,-4.9375,-1,-7.8125
1541872413156923,-5.625,-0.5625,-4.8125
1541872413172926,-0.9375,-0.9375,-1
1541872413195952,-0.9375,-1.375,4.6875
1541872413209963,-3.0625,-2.3125,12.9375
1541872413232968,-5.3125,-3.0625,21.8125
1541872413255986,-5.5,-2.8125,29.4375
1541872413277013,-6.1875,-3.0625,36.75
1541872413293018,-10.0625,-3.625,44
1541872413316051,-9.25,-2.8125,50.625
1541872413336071,-7,-1.5,57.8125
1541872413353085,-9.5625,-2.6875,66
1541872413375101,-10.25,-2.8125,72.625
1541872413396121,-10.5,-3.375,78.375
1541872413413135,-9.9375,-2.875,83.5
1541872413435151,-3.75,-0.125,86.375
1541872413456170,-5.125,2.0625,89.8125
1541872413473167,-9.8125,-0.125,94.6875
1541872413495200,-8.4375,-2.25,98.4375
1541872413516222,-4.0625,0.5625,99.8125
1541872413533253,-5,3.0625,102
1541872413555234,-14.625,0.9375,108.438
1541872413576266,-18.125,1.25,111.563
1541872413593283,-10.5625,-1.8125,115.125
1541872413616302,-7.5,-7.25,114.313
1541872413636356,-6.125,-9.5,119.375
1541872413653333,-7.75,-11.125,116.688
1541872413675339,-6.375,-14.0625,117.375
1541872413696367,2.75,-14.0625,111.75
1541872413712363,2.5,-15.9375,105.625
1541872413735381,-7.6875,-14.875,105.688
1541872413756417,-13.375,-12,104.25
1541872413772432,-12.8125,-11.5625,103.438
1541872413795431,-9.9375,-14.625,103.875
1541872413816503,-10.125,-15.1875,104.625
1541872413832462,-6.5625,-16.75,103
1541872413857494,-7.625,-16.3125,98.8125
1541872413876516,-12.6875,-13.9375,94
1541872413892530,-13.375,-16.1875,90.75
1541872413915530,-13.4375,-16.375,89
1541872413937567,-10.3125,-12.4375,83.4375
1541872413952579,-12.25,-15.9375,83
1541872413975587,-16,-14.8125,82.625
1541872413997617,-11.75,-15.125,79.125
1541872414012629,-9.75,-15.5,75.5
1541872414035648,-12.9375,-14.0625,74.125
1541872414057707,-10.875,-14.0625,75.375
1541872414078683,-9.75,-12.25,72.625
1541872414095697,-12.125,-14.3125,73.6875
1541872414117754,-9.3125,-14.9375,72.125
1541872414138732,-7.5,-14.375,67.5625
1541872414155727,-6.625,-16,63.6875
1541872414177762,-6.75,-15.8125,59.8125
1541872414198818,-5.75,-16.375,56.875
1541872414215797,-5,-15.75,51.4375
1541872414237795,-3.0625,-16,48.8125
1541872414258867,-3.0625,-16.3125,45.5
1541872414275846,-2.875,-16.3125,43.6875
1541872414297861,-1.9375,-15.625,42.125
1541872414318882,-1.8125,-15,40.9375
1541872414335896,-1.4375,-13.875,40.8125
1541872414357903,-1.0625,-15.125,39.75
1541872414378931,-2.5,-15.9375,41.125
1541872414395944,-1.5625,-16.6875,41.0625
1541872414417944,-0.8125,-15.9375,40.5625
1541872414438980,-0.0625,-14.8125,38.9375
1541872414455995,-1.4375,-15.0625,37.875
1541872414477993,-3.6875,-14.375,36.5625
1541872414507071,-3.5,-14.5625,36.625
1541872414515044,-2.625,-13.1875,33.875
1541872414538043,-1.9375,-13.875,33.125
1541872414559079,-1.9375,-15.25,31.3125
1541872414576129,-2.75,-16.4375,29.8125
1541872414598092,-3.625,-17.875,28.5625
1541872414619129,-5,-18.3125,27.125
1541872414636134,-4.5625,-17.4375,24.625
1541872414658177,-3.5,-16.75,22.8125
1541872414679215,-5.875,-17.4375,23.1875
1541872414695174,-8.125,-18.375,24.4375
1541872414718211,-10.875,-19,24.375
1541872414739263,-9.0625,-17.875,22.1875
1541872414755242,-6.0625,-15.4375,20.0625
1541872414778240,-7.6875,-15.0625,18.875
1541872414799312,-10.5,-14.3125,17.875
1541872414815290,-9.625,-11.75,18.9375
1541872414838304,-6.75,-8.1875,17.5625
1541872414860318,-6,-7.375,17.8125
1541872414875340,-7.3125,-7,18.5625
1541872414898359,-5.9375,-5.875,18.8125
1541872414920374,-2.875,-5.125,20.125
1541872414935425,-2.375,-3.9375,20.5
1541872414958409,-2.4375,-3.875,22.375
1541872414980423,-1.625,-3.875,22.6875
1541872415001443,-0.5625,-4.1875,22.1875
1541872415018457,-1.375,-5,21
1541872415040456,-0.5625,-5.8125,21.3125
1541872415061493,0.5625,-5.5625,18.8125
1541872415078507,2.0625,-3.9375,15.6875
1541872415100505,2.1875,-3.8125,14.0625
1541872415121543,1.125,-3.75,10.75
1541872415138592,2.375,-3.6875,10.8125
1541872415160554,3.3125,-3.8125,12.25
1541872415174586,1.9375,-2.75,8.9375
1541872415198605,1.125,-3.25,9.5
1541872415220612,-0.25,-4.5625,10.0625
1541872415225627,-0.25,-4.5625,10
1541872415242643,-1.0625,-3.0625,10.4375
1541872415263659,1.25,0.4375,8.9375
1541872415285678,2,2,10.625
1541872415302692,2.875,2.8125,10.5625
1541872415323709,5.625,2.625,9.5625
1541872415345765,4.75,1.1875,8.6875
1541872415362724,3.6875,-0.625,8.625
1541872415383760,3.9375,-1.4375,7.6875
1541872415405778,3.3125,-2.6875,7.75
1541872415422790,0.625,-4.6875,8.1875
1541872415443808,1.5,-4.5625,8.6875
1541872415465827,0.5625,-5.4375,8.3125
1541872415482840,1.1875,-5.25,9.3125
1541872415503857,1.8125,-5.25,9.0625
1541872415525910,0.5625,-5.25,8.0625
1541872415542889,0.8125,-5.875,7.0625
1541872415563907,-0.75,-6.8125,6.0625
1541872415585925,-0.125,-6.375,4.625
1541872415602975,-0.1875,-5.875,3.1875
1541872415623993,-0.625,-5.875,2.375
1541872415646010,-1.625,-5.875,3.125
1541872415662989,-0.75,-6.4375,5
1541872415684005,-0.0625,-5.9375,6.0625
1541872415706024,-0.0625,-5.875,6.25
1541872415723019,0.3125,-6.4375,6.4375
1541872415744050,-1.1875,-6.1875,5.6875
1541872415766109,-0.25,-6.0625,5.8125
1541872415783091,-0.4375,-6.5625,6.5625
1541872415804105,-1.125,-7.4375,6.625
1541872415826123,0.5,-7.4375,7.625
1541872415844137,0,-7.4375,6.9375
1541872415863154,0.125,-6.5,6.1875
1541872415886173,1.0625,-5.9375,5.3125
1541872415904168,1.5625,-6,4.5
1541872415924203,2.9375,-5.375,1.8125
1541872415946222,2.5,-5.625,0.625
1541872415964238,2.125,-5.75,0.0625
1541872415983252,2.8125,-4.9375,0.0625
1541872416006271,1.625,-5.4375,1.875
1541872416024280,1.5625,-5.25,3.375
1541872416043341,1.3125,-5.25,4.25
1541872416066320,0.25,-6.375,4.875
1541872416084331,0.6875,-6.4375,5
1541872416103351,0.875,-6.1875,4.75
1541872416126406,1.375,-6.3125,4.5625
1541872416144382,-0.375,-6.0625,3.4375
1541872416163384,0.375,-5.3125,3.1875
1541872416186455,0.8125,-5.0625,2.5
1541872416204434,0.25,-4.75,1.6875
1541872416223450,0.0625,-4.8125,1.375
1541872416246450,0,-5.0625,1.25
1541872416264485,0.375,-5.4375,0.6875
1541872416283500,0.25,-5.75,0.125
1541872416306520,0.875,-5.4375,-0.625
1541872416324533,0.875,-4.3125,-1.3125
1541872416343545,0.125,-2.875,-2.6875
1541872416361559,0.25,-1.0625,-5.0625
1541872416384579,0.75,1,-6.8125
1541872416405599,-0.25,2.625,-8.4375
1541872416421594,0.75,3.875,-10.625
1541872416444623,0.9375,4.9375,-12.3125
1541872416465647,0.5625,5.25,-11.375
1541872416481645,1.125,6,-10.9375
1541872416503680,1.5,6.75,-9.875
1541872416525680,1.125,8.0625,-10.9375
1541872416541712,1.9375,9.1875,-13.1875
1541872416563774,2.4375,9.8125,-16.9375
1541872416585750,5.0625,10.625,-20.375
1541872416605766,7.125,11.5625,-24.5
1541872416623764,9.125,12.1875,-30.8125
1541872416644830,10.4375,11.375,-37.3125
1541872416666817,12.125,11.3125,-44.0625
1541872416683816,12.75,11.5625,-46.75
1541872416704828,12.875,12.375,-50.125
1541872416726864,15.75,12.5625,-52.8125
1541872416743873,15.9375,13.375,-53.375
1541872416765888,13.8125,11.375,-53.5625
1541872416779890,13.25,12.3125,-52.4375
1541872416802927,14.0625,13.875,-54.8125
1541872416825947,13.5625,15.25,-59.125
1541872416839948,12.25,16.4375,-63.0625
1541872416862973,11,17.875,-67.75
1541872416885997,10.9375,16.375,-71.3125
1541872416907050,11.1875,16,-72.4375
1541872416923044,13.0625,17.875,-74.8125
1541872416946045,12.5,17.375,-77.8125
1541872416967062,10.3125,18.375,-76.9375
1541872416983057,6.1875,16.875,-78.5
1541872417006112,-0.25,15.375,-81.9375
1541872417027113,-1.625,14.3125,-84.625
1541872417043107,-0.125,14.375,-90.25
1541872417066144,2.1875,15.125,-95.8125
1541872417087162,7.75,14.625,-96.75
1541872417103166,7.9375,11.9375,-96.3125
1541872417133186,5.875,11.6875,-93.5
1541872417147212,6.5,13.8125,-92.5625
1541872417163205,5.3125,15.9375,-89.625
1541872417186240,2.625,14.75,-85.8125
1541872417207298,-0.4375,12.25,-84.5625
1541872417223260,1.125,12.5,-84.4375
1541872417246294,4.8125,14.9375,-86.1875
1541872417267303,7.6875,18,-87.0625
1541872417283305,8.3125,15.0625,-84.5
1541872417306343,6.5,13.375,-82.6875
1541872417327360,3.0625,14.25,-81
1541872417343354,1.1875,15.25,-80.8125
1541872417366388,0.0625,14,-78.5
1541872417387424,-0.4375,11.3125,-74.625
1541872417403413,2.1875,11.5,-75.9375
1541872417426433,3.8125,9.625,-76.875
1541872417447450,0.5625,6.4375,-78.0625
1541872417463467,-1.375,6.375,-80.0625
1541872417485490,2.3125,3.125,-79.5
1541872417507505,4.0625,2.6875,-78.625
1541872417522517,1.4375,1.375,-76
1541872417545582,4.125,1.3125,-75.625
1541872417566557,4.375,-0.1875,-74.875
1541872417582554,3.6875,-2.0625,-76.625
1541872417605580,5.5,-0.5,-82.75
1541872417626607,5.4375,-2.3125,-89.5625
1541872417642610,2.625,-5.8125,-91.1875
1541872417665628,-2.125,-0.9375,-92.1875
1541872417686647,-1.125,1.625,-90.8125
1541872417702649,-1.3125,0.3125,-87.375
1541872417725679,-6.1875,-0.9375,-84.0625
1541872417748708,-5.6875,-1.0625,-80.375
1541872417762715,0.1875,-1.1875,-73.6875
1541872417785720,-0.5,-1.125,-67.5
1541872417808757,-2.1875,-1.8125,-62.5625
1541872417822759,0.375,-0.75,-59.3125
1541872417845770,2.1875,0.875,-54.9375
1541872417868808,2.6875,0.9375,-53.1875
1541872417889823,0.75,1.1875,-50.625
1541872417905816,-0.625,0.75,-46.9375
1541872417928856,2.25,2.375,-43.3125
1541872417949873,3.75,3.5625,-39.625
1541872417965879,2.9375,5.3125,-36.75
1541872417988905,3.25,4.5625,-35.375
1541872418009922,3.0625,2.5,-32
1541872418025927,2.9375,3.75,-29.9375
1541872418048951,2,4.875,-27.875
1541872418069972,2.8125,5.1875,-26.5625
1541872418085969,4.9375,5.75,-26.875
1541872418108998,7,6.125,-28.1875
1541872418130033,7.0625,6.5,-29.9375
1541872418146016,7,7.1875,-32.375
1541872418168053,8.6875,7.4375,-35.125
1541872418190062,10.8125,7,-37.125
1541872418207078,10,6.5625,-38.1875
1541872418228102,8.4375,6.375,-39.1875
1541872418249119,7.75,5.9375,-39.4375
1541872418266134,8.5,5.375,-38.375
1541872418288149,9.9375,4.9375,-37.1875
1541872418309204,8.375,4.125,-35.375
1541872418326166,5.625,4.125,-32.8125
1541872418348192,2.875,2.1875,-30.75
1541872418369219,-0.25,3.4375,-28.375
1541872418386249,-0.625,4.375,-24.8125
1541872418408231,2.3125,3.625,-21.875
1541872418429268,4.625,2.4375,-19.125
1541872418445263,8.75,1.5,-18.1875
1541872418468290,13.125,0.875,-17.75
1541872418489353,13,1.4375,-18.1875
1541872418505312,10.5,2.4375,-18.8125
1541872418528340,12.0625,2.75,-19.5625
1541872418549350,13.9375,3.125,-19.375
1541872418565361,14,3.5,-18.875
1541872418588390,12.625,3.5625,-18.4375
1541872418611418,12.5625,4.1875,-18.9375
1541872418625430,13.0625,4.25,-19.3125
1541872418648431,15.125,3.5,-18.875
1541872418671468,15.3125,2.8125,-17.875
1541872418685479,12.875,2.9375,-16.375
1541872418708489,9,3,-15.125
1541872418731551,7.25,2.75,-13.375
1541872418752534,3.375,2.3125,-10.6875
1541872418768529,-0.125,1.9375,-8.125
1541872418791600,-0.25,1.3125,-5.375
1541872418805573,-1.6875,0.875,-2.6875
1541872418828587,-3.9375,1.125,0.0625
1541872418851597,-6.125,-1.375,3.9375
1541872418865610,-13.1875,-4.625,10.5625
1541872418888646,-26,-13.6875,21.4375
1541872418910707,-34.875,-13.1875,32.75
1541872418931683,-30.4375,-17.875,43.3125
1541872418948695,-30.4375,-16.3125,52.0625
1541872418970749,-30.125,-15.8125,61.4375
1541872418991731,-26.375,-15.625,67.1875
1541872419008745,-17.6875,-14.125,74.8125
1541872419030745,-11.75,-11.8125,81.0625
1541872419051817,-9.75,-10.25,83.9375
1541872419068795,-11.4375,-9.6875,86
1541872419090794,-11.875,-8.25,87.75
1541872419111830,-9.4375,-8.0625,91.125
1541872419128847,-6.4375,-6.25,93.125
1541872419150861,-7,-4.8125,94.8125
1541872419171915,-11.1875,-4.1875,93.8125
1541872419188894,-9.8125,-4.9375,93.375
1541872419210903,-0.125,-6.75,93.1875
1541872419231929,2.3125,-6.8125,93.3125
1541872419248980,-2.3125,-6.1875,91.6875
1541872419270941,-0.25,-6.625,91.1875
1541872419291978,3.6875,-7,89.5
1541872419308992,6.375,-7.5625,89.1875
1541872419330991,1.6875,-9.0625,87.625
1541872419352064,-2.5,-8.3125,87.6875
1541872419368037,-3.5625,-7.6875,87.625
1541872419391041,-4.5625,-7.9375,87.5625
1541872419412077,-4.8125,-6.5625,87.0625
1541872419428091,-4.9375,-6.875,86.8125
1541872419451099,-7.625,-6.75,87.4375
1541872419472127,-8.875,-5.75,87.75
1541872419488121,-7.6875,-4.625,86.5625
1541872419511140,-6.875,-4.5,86.8125
1541872419532176,-6.1875,-4.375,87.125
1541872419548189,-6.5,-3.4375,86
1541872419571204,-6.0625,-2.375,85.5625
1541872419593210,-5.5,-1.125,85.1875
1541872419608256,-4.8125,-1.625,84.125
1541872419615242,-3.3125,-1.875,82.875
1541872419636263,-4.25,-2.5625,82.8125
1541872419659278,-4.9375,-2.4375,81.1875
1541872419675279,-3,-1.0625,78.1875
1541872419696348,-0.4375,-2.25,74.5
1541872419719314,0.875,-2.5625,71.25
1541872419735327,-6.0625,-3.875,70.5625
1541872419756398,-9.125,-2.8125,69.875
1541872419779363,-5.4375,-1.5625,65.8125
1541872419795373,-1.1875,-3.1875,63.75
1541872419816410,-1.5,-3.1875,61.875
1541872419839429,-3.5,-2.3125,58.625
1541872419857428,-4.8125,-4.6875,57.125
1541872419876459,-6,-3.125,55.5
1541872419906485,-4.4375,-2.3125,53.25
1541872419917488,-2.0625,-2.5,50.625
1541872419936509,-3.5625,-3.0625,47.125
1541872419959527,-4.5625,-3.0625,45.9375
1541872419975523,-4.8125,-4.1875,44.875
1541872419996596,-5.3125,-4.8125,45.9375
1541872420019575,-6.25,-4.5,44.125
1541872420035590,-3.5625,-4.125,43.1875
1541872420056608,-0.625,-5.125,40.9375
1541872420078626,-1.25,-5.875,40.125
1541872420093640,-4.625,-6.25,39.375
1541872420116658,-3.125,-5.5,38.3125
1541872420138676,-0.4375,-4.375,37.0625
1541872420153688,0.0625,-5,35.375
1541872420176707,-1.3125,-5.25,32.625
1541872420198725,-1.875,-6.5625,31.125
1541872420215757,-1.4375,-6.5625,29.5
1541872420236757,-1.625,-5.625,27.0625
1541872420258775,-0.875,-5.25,27.0625
1541872420275807,-0.5,-5.5,26.375
1541872420296807,-2.75,-6.0625,25.9375
1541872420318825,-4.3125,-6.8125,26.1875
1541872420335839,-4.5625,-6,24.5625
1541872420356857,-2.4375,-6,23.4375
1541872420378870,-1.9375,-7.4375,23.4375
1541872420395908,-3.0625,-7.25,22.125
1541872420416946,-2.375,-6.625,20.4375
1541872420438924,-0.5625,-6.6875,17.75
1541872420455937,-1.375,-5.6875,14.3125
1541872420476955,-4.8125,-6.75,12.5625
1541872420498973,-5.9375,-6.875,12.3125
1541872420516979,-6.8125,-5.375,11.0625
1541872420537004,-5.1875,-5.8125,13.0625
1541872420555019,-4.9375,-5.125,12.5
1541872420577019,-4.875,-5.1875,12.4375
1541872420597054,-4.875,-6.6875,13.8125
1541872420615049,-5.375,-7.1875,14.8125
1541872420637068,-5.3125,-6.4375,15.0625
1541872420657099,-4,-6.75,14.5625
1541872420681104,-3.9375,-5.875,11.8125
1541872420697136,-4.75,-6.875,13.125
1541872420717136,-5.6875,-6.3125,13.0625
1541872420734167,-4.8125,-5.4375,12.3125
1541872420757186,-4.125,-5,11.8125
1541872420776202,-3.9375,-4.5,11.375
1541872420794251,-3.8125,-5.375,12.1875
1541872420817238,-4.9375,-5.0625,11.6875
1541872420836251,-3.25,-4.0625,9.9375
1541872420854259,-2.5625,-3.5625,8.5625
1541872420877284,-2.375,-3.75,7.5625
1541872420896301,-4.25,-4.9375,7.5
1541872420914296,-3.9375,-4.8125,7.375
1541872420936334,-2.8125,-4.125,8
1541872420957351,-2.5625,-2.3125,7.0625
1541872420974346,-4.25,-2.25,6.8125
1541872420997365,-4.3125,-3.3125,6.6875
1541872421016437,-4.4375,-4,7.625
1541872421033396,-4.5,-3.625,6.5
1541872421056429,-4,-3.75,6.9375
1541872421077450,-4.8125,-4.75,8.375
1541872421093473,-4.75,-5.375,8.875
1541872421116482,-4.0625,-5.875,9.9375
1541872421137499,-3.375,-4.8125,9.625
1541872421153493,-2,-3.3125,9.625
1541872421176549,-0.75,-1.625,8.1875
1541872421197549,1,0.625,5.75
1541872421213542,3,3.375,1.4375
1541872421236616,3.375,4.0625,-0.75
1541872421257598,3.125,4.5625,-2.1875
1541872421273593,2.75,4.5,-2.875
1541872421296629,1.6875,2.6875,-2.375
1541872421317684,0,0.6875,-0.875
1541872421333651,-1.5,-1.375,2.0625
1541872421356680,-2.75,-3.125,4.6875
1541872421377697,-4.75,-4.375,5.75
1541872421393690,-4.4375,-5.6875,7.75
1541872421416764,-4.1875,-5.8125,7.0625
1541872421437746,-4.3125,-6.125,7.75
1541872421453741,-4.75,-5.8125,7.75
1541872421476780,-4.25,-4.75,8.3125
1541872421498777,-2.9375,-3.75,9.125
1541872421513790,-2.625,-2.9375,8.5625
1541872421536828,-3.3125,-2.3125,6.4375
1541872421558833,-3.0625,-1.8125,5.9375
1541872421573839,-3.3125,-2.125,5.3125
1541872421596875,-2.5625,-2.25,5.6875
1541872421618897,-2.75,-2.4375,5.5625
1541872421632930,-3.0625,-2.625,6
1541872421656919,-4.0625,-3.9375,7.1875
1541872421678946,-4.0625,-3.5,7.1875
1541872421692938,-3.6875,-3.5,7
1541872421715975,-4.125,-4.25,7.0625
1541872421738995,-4.0625,-4.1875,6.375
1541872421753003,-3.25,-3.875,6.0625
1541872421777010,-2.5,-3.625,6.625
1541872421799027,-2.1875,-2.625,5.625
1541872421813050,-2.625,-2.0625,4.0625
1541872421836084,-1.9375,-2.25,4.25
1541872421859093,-0.9375,-1.5625,4.6875
1541872421873095,-0.875,-0.375,3.9375
1541872421896108,-0.375,-0.125,2.5625
1541872421926131,-1.1875,-0.625,0
1541872421933135,-1.75,-2.3125,-0.9375
1541872421956155,-3.5,-3.5,-0.375
1541872421979193,-3.3125,-3.75,0.25
1541872422000210,-4.25,-4,1.75
1541872422016213,-4.4375,-4.5,3.5625
1541872422039242,-5.3125,-5.4375,5.0625
1541872422060260,-5.0625,-6.875,7.1875
1541872422076253,-4.8125,-7.0625,7.5
1541872422099292,-3.8125,-6.6875,7.3125
1541872422120309,-4.3125,-6.25,7.3125
1541872422136302,-3.5625,-5.9375,6.375
1541872422159341,-3.375,-5.875,4.875
1541872422180358,-2.3125,-5.4375,4.6875
1541872422196367,-0.8125,-2.5,3.8125
1541872422219382,-1,0.0625,2
1541872422240391,-0.4375,0.5,1.0625
1541872422256402,0.8125,-0.5625,-0.125
1541872422279455,-1.6875,-0.9375,0.625
1541872422300459,-1.9375,-1.375,2.6875
1541872422316470,-2.8125,-3,5.3125
1541872422339497,-3.0625,-4.125,7.0625
1541872422360504,-5.1875,-5.625,9
1541872422376518,-3.9375,-7.25,12.5
1541872422398581,-3.0625,-6.3125,12.25
1541872422419591,-0.8125,-4.5,11.25
1541872422436550,-2.0625,-3.4375,7.5
1541872422458582,-1.6875,-3.375,7
1541872422481607,-1.875,-2.875,7.0625
1541872422496619,-1.125,-1.3125,6.4375
1541872422518632,-0.375,-0.8125,5.9375
1541872422541648,-1.1875,-0.5625,4.875
1541872422556651,-1.4375,-1.3125,4.6875
1541872422578668,-1.6875,-2.5625,3.875
1541872422601705,-1.6875,-3.25,3.625
1541872422615698,-1.625,-3.9375,5
1541872422638727,-2.125,-3.5625,4.9375
1541872422661755,-3.625,-4.25,4.6875
1541872422675748,-4.9375,-5.4375,5.375
1541872422698782,-5.5625,-7.1875,7.1875
1541872422721804,-4.8125,-6.625,8.1875
1541872422735797,-3.875,-5.5625,8.6875
1541872422758825,-1.9375,-4.6875,10.625
1541872422781849,-0.3125,-3.9375,10.5
1541872422795848,0.25,-2.8125,8.25
1541872422818870,0.8125,-1.3125,4.6875
1541872422841899,0.8125,-1.0625,2.0625
1541872422855911,-0.375,-0.6875,-0.75
1541872422878914,-1.0625,-1,-2.4375
1541872422901954,-2.8125,-1.6875,-1.9375
1541872422915967,-2.625,-1.25,-1.125
1541872422938964,-2.625,-0.875,0.125
1541872422962003,-1.75,-1.5,1.6875
1541872422983020,-1.125,-1.8125,1.4375
1541872422999015,-1.125,-2.0625,0.4375
1541872423022087,-0.1875,-1.3125,0.1875
1541872423042105,0.9375,-0.8125,-0.0625
1541872423059078,0.9375,-0.375,-0.875
1541872423082093,0.5625,0,-1.8125
1541872423103100,0.6875,-0.1875,-1.25
1541872423119132,0.9375,-0.1875,-0.5625
1541872423142147,2.0625,-0.9375,-0.3125
1541872423163165,3.3125,-1.4375,-1.125
1541872423179182,3.625,-0.5625,-4.75
1541872423201191,4.3125,1.1875,-10.375
1541872423222213,1.1875,5.875,-26
1541872423238215,3.75,7.3125,-37.4375
1541872423261240,2.4375,9.375,-43.4375
1541872423282266,3.625,12.8125,-47.25
1541872423305285,2.9375,17.625,-55
1541872423321289,-2.0625,22,-71.5625
1541872423342315,3.5,24.75,-80.1875
1541872423358325,20.8125,24.875,-79.875
1541872423381339,50.5625,28.25,-79.75
1541872423404368,68.4375,27.75,-87.75
1541872423418366,52.0625,21.6875,-95.0625
1541872423441377,24.9375,12.625,-91.3125
1541872423464418,6.5625,7.125,-84.375
1541872423478420,2.375,12.9375,-88.5625
1541872423501427,11,19.5625,-98.125
1541872423524468,19.3125,16.9375,-102.375
1541872423545486,17.375,9.5625,-98.1875
1541872423561476,4,5.375,-91.875
1541872423590519,-2.5,10.5,-92.8125
1541872423605533,8.125,17.5,-99.5625
1541872423621538,15.875,14.9375,-100
1541872423644560,7.875,4.3125,-90.375
1541872423665576,-5.5625,6.5,-82.6875
1541872423681577,-8.3125,13.75,-81.3125
1541872423704625,5.6875,20.6875,-86.9375
1541872423725643,15.375,15.4375,-95
1541872423741642,11.1875,2.375,-89.9375
1541872423763663,0.5625,3.4375,-84.0625
1541872423785662,-4.3125,12.3125,-84.625
1541872423801675,8.125,18.0625,-90.625
1541872423823748,18.375,9.625,-96.8125
1541872423844730,10.125,-0.5625,-91.25
1541872423861744,-6.75,2.0625,-84.75
1541872423884779,-7.375,10.0625,-87.25
1541872423904778,7.4375,13.625,-91.5625
1541872423921794,13.9375,4.5,-91.9375
1541872423943808,9.625,-1.9375,-88.4375
1541872423964863,2.375,1.875,-89.5
1541872423981860,7.8125,6.0625,-92.3125
1541872424003842,14.5,5,-92.875
1541872424009866,13.5,-0.5,-88.6875
1541872424031884,4.75,-2.0625,-84.125
1541872424046896,0.875,3.75,-80.3125
1541872424069899,6.3125,7.9375,-81.6875
1541872424091934,9.125,5.25,-79.3125
1541872424106946,5.0625,0,-74.4375
1541872424129964,-0.75,-0.25,-69.8125
1541872424151982,0.4375,2.9375,-67.625
1541872424166998,5.9375,4.8125,-66.1875
1541872424190005,6,3.8125,-65.5
1541872424212032,2.6875,2.3125,-62.3125
1541872424227036,-4,2.375,-57.9375
1541872424249063,-5.3125,5.6875,-56.5
1541872424272081,-2,6.9375,-56.125
1541872424287085,0.375,5,-55.875
1541872424309112,0.5,0.9375,-54.75
1541872424332131,-4.125,0.1875,-51.9375
1541872424347144,-4.8125,3.9375,-50.375
1541872424369162,0.9375,5.75,-49
1541872424392180,3.4375,4.9375,-48.4375
1541872424407176,1.4375,4.875,-48.0625
1541872424429246,-1.375,6.1875,-45.9375
1541872424452230,-0.0625,7.6875,-45
1541872424467238,2.375,7.5625,-43.6875
1541872424489262,2.9375,7.3125,-43.9375
1541872424512280,2.0625,8.375,-44.4375
1541872424527292,2.0625,8.25,-42.75
1541872424549312,-0.1875,8.1875,-42.125
1541872424567315,-3.8125,9.625,-41.25
1541872424588331,-4.8125,9.6875,-41.375
1541872424609359,-4.8125,9.25,-40.25
1541872424627356,-5.625,9.375,-40.25
1541872424647392,-8.375,9.5625,-39.25
1541872424669411,-11.8125,9.5625,-38.625
1541872424687415,-13,10.375,-41.6875
1541872424707476,-18.5625,9.8125,-39.375
1541872424729459,-17.4375,11.8125,-41.875
1541872424747465,-14.75,11.5,-41.5
1541872424767492,-12.1875,11.125,-42.1875
1541872424789492,-12.25,11.6875,-41.875
1541872424807506,-12,11,-39.3125
1541872424827582,-12.75,10.9375,-36.5
1541872424849559,-13.6875,9.9375,-30.5
1541872424867573,-10.3125,8.5,-24.5
1541872424887580,-10,5.8125,-15.625
1541872424909607,-8.8125,3.75,-7.375
1541872424927622,-7.4375,2.9375,0.875
1541872424948639,-7.125,0.5625,7.625
1541872424977659,-12.4375,-1.4375,14.5
1541872424994671,-13.5,-4.0625,21.5
1541872425011691,-12.4375,-5.1875,28.75
1541872425029706,-14,-7.5625,36.5
1541872425047721,-15.75,-9.125,43.75
1541872425068737,-15.25,-10.375,51
1541872425089756,-18.5625,-10.5625,57.125
1541872425107763,-23,-10.25,62.3125
1541872425128789,-20.4375,-10.5625,67.875
1541872425149806,-13.75,-10.4375,71.625
1541872425167820,-7.5625,-11.25,75.625
1541872425188837,-3.625,-10.1875,79.5625
1541872425209854,-3.0625,-10.6875,83.875
1541872425227870,-3.6875,-9.5625,87.3125
1541872425248870,-1.25,-8.3125,90.375
1541872425270888,-0.3125,-8.4375,92.0625
1541872425287914,-0.4375,-7.6875,93.75
1541872425309919,-1.3125,-8.6875,94
1541872425329954,1.25,-7.75,94.75
1541872425347969,1.9375,-7.875,95.3125
1541872425369967,0.6875,-7.5,96.1875
1541872425390006,2.25,-7.5,94.875
1541872425408022,3.8125,-8.0625,96
1541872425430017,2.625,-9.9375,100
1541872425450088,0.375,-10,101.813
1541872425467066,-0.1875,-9.3125,101.938
1541872425489075,0.1875,-10.0625,102.625
1541872425510137,-0.6875,-10.0625,104.125
1541872425527112,-4.1875,-10.9375,104.5
1541872425549118,-3.1875,-11.5625,105.063
1541872425570151,-1.1875,-10.875,103.75
1541872425587165,-3.0625,-11.75,101.875
1541872425609166,-3.375,-11.1875,100.063
1541872425630236,-0.875,-11.375,95.75
1541872425647215,-0.625,-13.875,96.1875
1541872425669224,-1.375,-14.1875,93.6875
1541872425690285,-2.5625,-15.4375,90.875
1541872425707264,-1.25,-16.5,87.8125
1541872425729263,1.375,-14.625,83.1875
1541872425750299,-0.25,-15.3125,81.125
1541872425767306,-5.5625,-14.5,77.875
1541872425789313,-5.8125,-12.5,73.5
1541872425810384,-3.3125,-13.75,69.125
1541872425826362,-3.0625,-15.125,66.875
1541872425849363,-2.5625,-13.9375,64.125
1541872425870399,-5,-12.4375,60.4375
1541872425886412,-7.3125,-14.875,61.75
1541872425909430,-8.5625,-15.4375,62.875
1541872425937454,-7.3125,-13.875,60.5625
1541872425946461,-6.125,-15.125,60.5625
1541872425969480,-6.75,-16.3125,60.25
1541872425990499,-6.0625,-16.375,59.5625
1541872426006511,-6.8125,-16.8125,59.125
1541872426029511,-8.4375,-17.0625,58.5625
1541872426050547,-8.375,-16.5,58.125
1541872426074567,-7.0625,-15.4375,54.875
1541872426089579,-6.375,-14.625,51.8125
1541872426110633,-5,-15.25,49.625
1541872426126610,-6.0625,-16.25,47.25
1541872426149628,-6.625,-17.3125,44.1875
1541872426170681,-6.5625,-18.625,39.9375
1541872426186657,-5.875,-19,38.0625
1541872426209678,-6.4375,-17.4375,37.1875
1541872426232697,-8.0625,-16.9375,36.25
1541872426246707,-7.0625,-15.3125,36.125
1541872426269727,-5,-14.1875,34.1875
1541872426291728,-3.6875,-14.9375,32.125
1541872426306740,-4.875,-15.9375,31.5
1541872426329776,-8,-16.375,31.625
1541872426351791,-8.8125,-16.4375,31.75
1541872426380819,-6,-13.5,31.8125
1541872426389827,-4.4375,-12.25,30.4375
1541872426411830,-4.375,-11,27
1541872426432861,-3,-11,26.375
1541872426449871,-4.375,-10.0625,26
1541872426471875,-4.625,-7.6875,23.9375
1541872426492912,-3.0625,-6.9375,22.6875
1541872426508925,-2.8125,-6.4375,21.3125
1541872426531944,-2.875,-5.4375,18.25
1541872426552961,-0.25,-6.75,20.8125
1541872426568974,-0.875,-5.75,19.25
1541872426591984,-1.9375,-4.8125,17.3125
1541872426613047,0,-3.5,15.1875
1541872426629024,-0.0625,-3.9375,14.25
1541872426652043,-1.1875,-2.5625,13.0625
1541872426666038,0.4375,-2.3125,12.6875
1541872426689108,1,-1.75,11.6875
1541872426712109,-0.1875,-2.125,9.8125
1541872426733145,-2.625,-3.25,9.875
1541872426749113,-3,-3.625,11.25
1541872426772141,-2.4375,-3.625,12.1875
1541872426793195,-2.625,-4.3125,12.3125
1541872426809163,-4.5625,-5.375,12.4375
1541872426832191,-4.1875,-6.375,13.4375
1541872426853209,-3.875,-6.6875,14
1541872426869208,-5.75,-7,13.9375
1541872426892240,-3.1875,-6.6875,15.125
1541872426913294,-2.375,-5.8125,15.8125
1541872426929252,-1.5,-4.0625,12.75
1541872426952289,-1.375,-4.25,10.875
1541872426973307,-2.375,-4.8125,9.0625
1541872426989301,-2.5625,-5.625,8.4375
1541872427012374,-3.0625,-5.1875,7.1875
1541872427033357,-2.8125,-4.375,5.0625
1541872427049351,-1.625,-5.25,5.625
1541872427072389,-1.375,-6.5625,6.5
1541872427093406,-2.9375,-7.1875,4.8125
1541872427110420,-2.9375,-8.0625,4.8125
1541872427132433,-4.5625,-9.1875,3.8125
1541872427154448,-5.5625,-9.625,4.8125
1541872427169450,-5.8125,-9.375,3.625
1541872427192485,-6.5625,-10.0625,3.875
1541872427214488,-6.9375,-11.9375,6.0625
1541872427229519,-8,-12.625,6.5
1541872427251537,-8.5,-12.3125,6.75
1541872427274543,-8.25,-12.1875,8.6875
1541872427289571,-10,-11.8125,9.5625
1541872427312568,-9.125,-11.4375,10.6875
1541872427334601,-7.8125,-11.25,11.5625
1541872427348610,-6.75,-10.3125,12.125
1541872427371631,-5.9375,-9.375,11.5625
1541872427394655,-4.8125,-9.375,10.9375
1541872427408646,-4.875,-8.4375,8.4375
1541872427431666,-3.375,-7.5,5.125
1541872427454704,-1.6875,-6.875,2.75
1541872427468706,-2.3125,-6.4375,1
1541872427491717,-2.9375,-5.1875,-1.5625
1541872427514753,-1.625,-4.75,-3.1875
1541872427528747,-2.125,-4.9375,-2.9375
1541872427551769,-3.4375,-5.625,-3.1875
1541872427574804,-3.6875,-6.8125,-1.4375
1541872427588815,-5.125,-6.625,-0.8125
1541872427617839,-7.25,-7.0625,1.25
1541872427634852,-8.1875,-7.4375,2.6875
1541872427655869,-6.6875,-8.4375,4.875
1541872427671870,-7,-9.375,5.75
1541872427694901,-5.125,-9.5,5.1875
1541872427715919,-4.5625,-9.5,3.25
1541872427731915,-4.5,-9.6875,1.375
1541872427754952,-5.5625,-8.0625,-1.125
1541872427775968,-4.6875,-5.9375,-3.5625
1541872427791977,-2.875,-3.25,-5.5
1541872427815001,-2.25,-2.375,-5.625
1541872427836015,-4.125,-3.375,-2.375
1541872427852012,-5.5,-3.6875,0.125
1541872427875039,-5,-3.875,2.375
1541872427896093,-5.0625,-4.625,5.4375
1541872427912072,-5.3125,-4.3125,6.6875
1541872427935107,-4.0625,-4.0625,8.625
1541872427956108,-4.1875,-3.5625,8.3125
1541872427972131,-3.0625,-4.375,9.875
1541872427994149,-2.0625,-3.9375,9.375
1541872428015166,0.375,-3.0625,7.125
1541872428032180,1.6875,-1.9375,4.0625
1541872428054192,1.0625,-1.875,1.8125
1541872428075216,1.125,-1.25,-0.8125
1541872428092230,1.5,-1.5,-1.875
1541872428114241,0.5,-1,-2.125
1541872428137267,-0.0625,-0.125,-2.75
1541872428152279,-0.0625,-0.25,-2.25
1541872428174294,-0.6875,-0.5625,-1.9375
1541872428197316,-0.75,-1.1875,-2
1541872428212329,-0.625,-1.4375,-2.625
1541872428234344,-1.0625,-1.875,-2.0625
1541872428257382,-0.5625,-0.9375,-2
1541872428271357,1.25,0.5625,-4.3125
1541872428294389,2.9375,1.25,-5.6875
1541872428317414,2.5625,1.75,-6.875
1541872428331407,3.9375,2,-7.5625
1541872428354431,5.5,3.3125,-10.4375
1541872428377464,6.6875,5.625,-13.875
1541872428398483,7.375,8.1875,-17.875
1541872428414476,9.3125,10.125,-21
1541872428420481,11.1875,11.75,-24.625
1541872428442518,12.5625,13.375,-30
1541872428464536,13,16,-36.6875
1541872428479551,16.0625,16.625,-41.625
1541872428502569,18.1875,17.0625,-45.375
1541872428524569,15.875,17.3125,-49.375
1541872428539600,15.4375,18.3125,-53.5625
1541872428562600,15.875,19.0625,-57.25
1541872428580625,15.125,18.5,-60.5
1541872428601649,15.4375,17,-61.4375
1541872428622667,12.875,16.1875,-63.0625
1541872428640682,7.25,16.75,-65.5625
1541872428659697,5.0625,18.25,-68.75
1541872428682716,6.875,18.25,-73.625
1541872428700730,7.625,13.1875,-68.8125
1541872428719746,3.8125,12.1875,-70
1541872428742761,3.375,12.875,-69.125
1541872428758761,5.8125,15.875,-72.8125
1541872428779779,5.5,17.8125,-77.6875
1541872428802815,4.375,15.0625,-79.25
1541872428818808,4.5,13.4375,-76.3125
1541872428839845,1.9375,14.625,-74.125
1541872428862864,2.1875,17.0625,-76.0625
1541872428878860,3.5,19.5625,-81.375
1541872428899931,3.125,17.4375,-84
1541872428922913,1.9375,12.1875,-79.375
1541872428940926,1.8125,13.375,-74.8125
1541872428959945,3.375,15,-75.375
1541872428982963,1.875,14.3125,-74.9375
1541872428998956,-3.9375,12.6875,-75.75
1541872429019994,-6.0625,11.5,-75.875
1541872429043008,-2.9375,11.0625,-75.875
1541872429060026,1.6875,11.75,-74.375
1541872429080042,0.375,13.375,-74.625
1541872429102063,-3.5625,14.8125,-76.125
1541872429120077,-5.8125,12.125,-77.25
1541872429140095,-2.5,11,-75.5
1541872429162113,0.9375,12.125,-75.375
1541872429180126,2.25,15.25,-76.375
1541872429200124,2.25,15.25,-77
1541872429222157,-2.9375,12.5625,-78.9375
1541872429240162,-5.9375,9.0625,-78
1541872429260192,-1.5625,10.6875,-75.8125
1541872429284212,2.0625,10.25,-71.375
1541872429300205,-0.375,8.25,-64.9375
1541872429320241,-7.125,6.5,-58.5625
1541872429342241,-11.125,4.5,-53.375
1541872429360255,-6.5625,3.375,-50.5
1541872429380291,2.1875,3,-49.6875
1541872429402309,5.0625,2.375,-49.3125
1541872429420315,2.875,1.1875,-48.125
1541872429440376,-0.3125,0.875,-46.4375
1541872429462358,-1.125,2.375,-45.125
1541872429480353,-0.1875,3,-43.875
1541872429500390,1.5,3.4375,-42.25
1541872429522407,0.3125,3,-41.875
1541872429546407,-1.375,2.5,-41.5625
1541872429561424,-1.125,2.875,-40.9375
1541872429582457,-2.0625,1.75,-41.375
1541872429600453,-0.6875,1.5,-40.1875
1541872429620489,0.3125,2.25,-39.875
1541872429642506,-0.1875,2.0625,-40.75
1541872429660502,-0.625,0.6875,-40.9375
1541872429681519,-0.75,0.3125,-40.5
1541872429702556,0.375,0.625,-38.625
1541872429720552,0.625,0.9375,-36.9375
1541872429741569,-0.5,1.875,-35.5625
1541872429762644,-2.3125,1.5,-35.125
1541872429780600,-1.5625,0.1875,-35
1541872429801636,-0.4375,-0.5625,-34
1541872429823693,-1.3125,0.625,-33.25
1541872429840673,-0.875,1.4375,-32.5625
1541872429860685,0.1875,0.75,-30.5
1541872429883706,-2,0.375,-29.875
1541872429899709,-2,-0.375,-27.8125
1541872429922739,-2,0,-26.375
1541872429936745,-1.5,0.1875,-24.6875
1541872429959757,-1.625,-0.125,-23.3125
1541872429988783,-1.6875,-0.6875,-20.625
1541872429996798,-2.5,-0.125,-18.8125
1541872430019817,-2.0625,0.75,-17.5
1541872430041836,1.1875,-0.0625,-16.5
1541872430056848,1.625,-0.875,-15.6875
1541872430079867,-3,-0.125,-13.6875
1541872430101885,-1.125,1.125,-13.0625
1541872430117889,2.5625,1.5,-13.0625
1541872430139917,4,1.3125,-13.625
1541872430161972,4.4375,1.375,-13.875
1541872430176947,6,1.6875,-14.8125
1541872430199966,8.25,2.4375,-16.8125
1541872430221980,9,3.25,-19.4375
1541872430243002,9,2.5625,-22.6875
1541872430266056,9.5,2.25,-26.125
1541872430282015,8.9375,2.5,-29.1875
1541872430303051,7.8125,2.75,-31.1875
1541872430320065,5.1875,3.5,-33.5625
1541872430342064,1.625,4.625,-34.5625
1541872430363101,-2.3125,4.9375,-34.4375
1541872430380132,-0.125,4.6875,-35
1541872430402113,2.1875,4.0625,-35.8125
1541872430423132,2.1875,4,-37.1875
1541872430440199,0.1875,4.375,-38
1541872430462162,-1.75,5.375,-38.625
1541872430483200,-1.3125,5.75,-39.125
1541872430500213,-2,5.375,-38.1875
1541872430522213,-1.8125,5.5625,-36.875
1541872430543248,0,5.25,-34.9375
1541872430560288,-0.6875,5.25,-32.5625
1541872430582261,-2.3125,5.5,-30.375
1541872430603299,-0.6875,4.9375,-27.8125
1541872430620310,0.125,4.75,-25.375
1541872430642321,0.75,3.625,-22.75
1541872430671348,1.4375,3.3125,-21.625
1541872430679342,1.6875,2.75,-20.375
1541872430702380,-3.375,1.8125,-18.125
1541872430723433,-3.5,1.75,-15.375
1541872430739412,0,0.3125,-12.375
1541872430762429,5.3125,-2.125,-11.375
1541872430783442,9.875,-5.5,-11.5625
1541872430807463,9.6875,-4.375,-11.5625
1541872430822479,3.25,-2.25,-11.5625
1541872430843496,-5.0625,-2.625,-11.0625
1541872430859509,-3.375,-4.625,-10.1875
1541872430882511,3,-5.625,-7.375
1541872430904542,8.5,-4.5625,-6.3125
1541872430919551,-2.3125,-2.4375,-5.9375
1541872430942561,-9.125,-2.125,-6.6875
1541872430964577,-7.8125,-3.3125,-8.1875
1541872430979590,-1.3125,-4.3125,-8.875
1541872431002627,-0.25,-3.375,-10.4375
1541872431024628,-5.3125,-2.125,-12.0625
1541872431039637,-9.125,-1,-12.5
1541872431062677,-8.75,-1.0625,-12.5625
1541872431084686,-4.25,-2.6875,-11.8125
1541872431099707,0.375,-3.0625,-9.625
1541872431122727,-0.3125,-2.875,-8
1541872431144727,-3.625,-2.4375,-5.375
1541872431159744,-4.125,-1.8125,-4
1541872431182776,-4.9375,-1.1875,-2.4375
1541872431204774,-3.0625,-1,-0.875
1541872431219787,-1.3125,-0.875,-0.1875
1541872431242825,0.3125,-0.875,0.8125
1541872431264825,2.625,-0.5,1.5625
1541872431278854,1.5625,0.75,2.375
1541872431302875,0.0625,1.4375,2.9375
1541872431324882,1.5625,1.125,3.4375
1541872431338906,2.25,1.5,4
1541872431362924,-0.375,1.8125,4.125
1541872431384926,-2.6875,1.9375,4
1541872431405960,-2.75,2.3125,3.1875
1541872431422971,-2.375,2.9375,2.375
1541872431444974,-4.3125,3,1.6875
1541872431466008,-6.875,3.875,2.125
1541872431482059,-11.25,2.6875,4.5
1541872431505041,-20.5625,1.875,8.375
1541872431526095,-22.625,2.0625,12.75
1541872431542072,-21.875,0.1875,19.25
1541872431565091,-19.6875,0.5,27.3125
1541872431586109,-20.1875,1.5,36.75
1541872431602120,-24.75,0.875,46.125
1541872431625140,-24,1,53.8125
1541872431646194,-20.4375,1,59.3125
1541872431662153,-16.625,2.3125,62.5
1541872431685190,-14.6875,1.5,65.75
1541872431713248,-15.8125,0.8125,70.125
1541872431722220,-17.5,0.6875,72.75
1541872431745240,-14.3125,1.1875,74.8125
1541872431766291,-8.5625,0,75.75
1541872431782265,-6.625,-1.5625,75.6875
1541872431805288,-7.9375,-3.0625,76.0625
1541872431826306,-7.3125,-3.875,76.0625
1541872431842302,-4.375,-8.25,75.5
1541872431865338,-0.75,-7.4375,74.1875
1541872431887338,-1.4375,-6.8125,71.3125
1541872431902349,-3.0625,-7,67.9375
1541872431925388,-2.5625,-9.0625,66.3125
1541872431947387,-2.875,-9.9375,61.9375
1541872431961417,2.3125,-7.5,54.9375
1541872431985437,7.9375,-7.1875,50.5625
1541872432007436,1.75,-8.25,49.125
1541872432028473,-4.1875,-7.9375,49.3125
1541872432045483,-5.5625,-8.0625,46.8125
1541872432067486,-1.8125,-9.5,43.4375
1541872432088522,1.625,-9.5,41.1875
1541872432104535,-0.625,-8.0625,40.6875
1541872432127554,-8,-6.3125,39.75
1541872432148572,-10.75,-5.25,39.8125
1541872432165570,-8.25,-6.3125,39.0625
1541872432187585,-4.75,-5.625,39.0625
1541872432208657,-2.8125,-4.6875,37.6875
1541872432224635,-3.6875,-3.0625,36.1875
1541872432247655,-3.6875,-2.25,37.0625
1541872432268672,-3.1875,-2.8125,36.0625
1541872432284679,-2.25,-2.5625,35.875
1541872432307703,-1.75,-0.625,32.4375
1541872432328720,-2.3125,0.5,29.1875
1541872432344724,-3.0625,0.3125,26.9375
1541872432367769,-5,-0.0625,25.75
1541872432388770,-6.75,-0.0625,25.875
1541872432404779,-8.4375,-0.5625,25.5625
1541872432427819,-7.625,-1.3125,26.9375
1541872432448855,-3.625,-3.25,28
1541872432464813,-0.75,-5.4375,30
1541872432487852,0.4375,-5.375,31.3125
1541872432508868,1.1875,-5.25,33
1541872432524872,0.875,-4.6875,34.25
1541872432547904,-1.125,-3.875,37
1541872432568953,-1.625,-3.4375,38
1541872432584923,-1.625,-3.125,39.1875
1541872432607950,-2.0625,-2.875,39.5
1541872432628967,-0.5625,-2.8125,39.5625
1541872432643981,1.125,-3.0625,39.0625
1541872432674005,0.25,-2.5,38.25
1541872432689016,-1.375,-2.5,36.4375
1541872432704029,-2.75,-2.0625,34.125
1541872432728045,-0.6875,-0.6875,28.5625
1541872432749064,3.375,-1.1875,23.1875
1541872432764070,2.5625,-1.875,20.1875
1541872432788095,-3.375,-2,20.125
1541872432810107,-5.5,-0.625,18.625
1541872432815122,-0.6875,-0.9375,16.125
1541872432832135,0.75,-1.4375,15.6875
1541872432853152,-3.4375,-1.9375,17.5625
1541872432875170,-8.1875,-2,19.75
1541872432892168,-4.4375,-2.0625,21.4375
1541872432913240,1.0625,-3,22.5625
1541872432935220,0.4375,-3.1875,22.875
1541872432952233,-3.75,-3.5,25.1875
1541872432973251,-4.5,-2.6875,25.375
1541872432995270,-3.0625,-2,26.125
1541872433012301,-1.5625,-2,26.0625
1541872433033301,-1.75,-2.0625,25.5625
1541872433055319,-3.625,-1.5,26.3125
1541872433072332,-6.25,-0.5625,26.8125
1541872433093350,-3.6875,0.375,25.375
1541872433115368,1.9375,1.75,21.5625
1541872433132382,1.9375,1.25,18.1875
1541872433153399,-0.4375,1,15.1875
1541872433175418,-3.25,1.1875,13.375
1541872433190430,-0.9375,1.25,9.6875
1541872433213485,1.8125,0.375,8.875
1541872433235503,-0.4375,-1.625,8.9375
1541872433252471,-5.625,-2.875,11.375
1541872433273478,-6.875,-3.5,12.3125
1541872433290512,-1.875,-3.875,13.25
1541872433310529,0.875,-5,12.8125
1541872433333530,0.1875,-5.8125,12.8125
1541872433350563,-0.875,-5.6875,12.25
1541872433370614,-2.125,-5.5625,12.5
1541872433392597,-3.1875,-4.25,12.25
1541872433410622,-0.75,-2.9375,11.375
1541872433431620,3,-2.8125,9.625
1541872433452646,7.1875,-1,6
1541872433470643,5.75,-0.8125,2.3125
1541872433491670,-3.625,-2.375,3.1875
1541872433512695,-9.3125,-0.125,4.1875
1541872433530699,-2,2.75,1.75
1541872433551714,5.6875,2.25,0.125
1541872433572781,2.1875,-0.625,2.0625
1541872433590756,-5.5,-2.375,5.875
1541872433611759,-5,-1.875,8.3125
1541872433632794,0.625,-1.6875,11.6875
1541872433650800,0.125,-2.4375,14.8125
1541872433671807,-4.9375,-3.375,17.125
1541872433692844,-4.125,-4,18.1875
1541872433710840,-0.1875,-4.0625,18.0625
1541872433731859,1.875,-3.3125,19.0625
1541872433752893,-1.5625,-3.3125,20.5
1541872433775912,-4.875,-2.0625,20.5625
1541872433793928,-2.125,-1.875,19.375
1541872433812924,0.8125,-2.5625,17.0625
1541872433830939,2.125,-3.375,15.1875
1541872433860963,-1.5625,-4.25,15.9375
1541872433872993,-7.1875,-4.6875,18.0625
1541872433891007,-8.25,-4.4375,19.5
1541872433914021,-1.6875,-4.5625,18.125
1541872433933041,2,-5.3125,15.25
1541872433951057,1.625,-6.375,13
1541872433974056,-0.125,-4.375,10.4375
1541872433993091,-0.4375,-2.6875,9.25
1541872434011106,-1.1875,-1.9375,9.0625
1541872434033165,-2.5625,-1.8125,9.6875
1541872434060147,-4.875,-2.75,9.9375
1541872434071156,-3.625,-2.875,9.75
1541872434093157,-3.0625,-4.125,10.75
1541872434116187,-3.375,-4.625,12.1875
1541872434131206,-2,-4.3125,12.875
1541872434153204,0.375,-3.25,12.125
1541872434173242,2.5,-2.25,10
1541872434191254,2.75,-1.6875,8.25
1541872434213254,0.375,-1.1875,5.9375
1541872434241332,-1.8125,-0.625,5.3125
1541872434250302,-0.5,0.375,3.4375
1541872434272304,1.5,0.375,2.8125
1541872434294336,-2.0625,-1.0625,4.0625
1541872434317358,-6.4375,-2.625,6.75
1541872434332366,-7.8125,-4.875,9.375
1541872434353387,-3.0625,-6.5,11.75
1541872434370402,-0.75,-8.4375,13.25
1541872434392411,-1.75,-10.6875,14.5
1541872434413438,-4.75,-10.6875,16
1541872434430452,-3.75,-9.75,17.8125
1541872434452457,-2,-8,18.25
1541872434473487,-0.5625,-6.125,19.0625
1541872434490500,-0.4375,-5.0625,20.0625
1541872434512500,-1.0625,-3.5625,20.1875
1541872434533537,-0.25,-3.125,21.1875
1541872434557537,0,-2.25,19.875
1541872434573570,2.625,-1.8125,18.6875
1541872434593586,3.875,-0.625,17.625
1541872434609580,3.6875,-1.0625,15.4375
1541872434632608,0.6875,-1.1875,15.125
1541872434653616,-0.9375,-1,14.75
1541872434670685,0.4375,-1.8125,14.5
1541872434693703,4.3125,-2.75,12.6875
1541872434715721,4.625,-4.4375,11.25
1541872434730699,-0.875,-4.9375,9.3125
1541872434752698,-2.75,-4.375,7.0625
1541872434775737,1.0625,-2.9375,4.125
1541872434796795,-1.1875,-3.875,2.8125
1541872434812747,-8.25,-2.75,3.0625
1541872434841791,-8.6875,-0.4375,3.9375
1541872434850780,-2.5,0.1875,5.1875
1541872434872797,0.6875,-1,7.125
1541872434894835,-0.4375,-2.5625,8.8125
1541872434909829,-1.0625,-4.4375,11.125
1541872434932848,-2.125,-5.875,13.5
1541872434954884,-3.5625,-7.875,16.75
1541872434975901,-5.5625,-8.9375,18.75
1541872434992915,-5.5,-9.9375,21.5625
1541872435014967,-4.9375,-10.5,24
1541872435035946,-4.5,-10.125,24.625
1541872435052947,-4.3125,-9.5,25.1875
1541872435074979,-3.375,-8.0625,24.9375
1541872435096000,-2.375,-7,25.5
1541872435113013,-1.625,-5.9375,25.0625
1541872435135043,-0.4375,-6.0625,24.9375
1541872435156044,-0.625,-7.1875,24.25
1541872435173082,-1.0625,-7.125,22.5625
1541872435195064,-0.75,-7.6875,22.1875
1541872435216099,-0.4375,-7.1875,21
1541872435233113,-0.0625,-7.5,20.3125
1541872435261137,-0.625,-7.4375,19.1875
1541872435276149,-1.5,-7.75,18.3125
1541872435293163,-1.3125,-7.375,16.8125
1541872435315172,-0.4375,-6.4375,14.5625
1541872435336197,0.5625,-4.875,11.5625
1541872435353212,0.25,-4.25,9.375
1541872435375211,0.25,-4.125,7.5
1541872435396284,-0.25,-3.875,4.875
1541872435413264,-0.75,-3.5625,3.375
1541872435435271,-0.5,-2.875,1.375
1541872435456332,0.375,-2.75,0.75
1541872435473345,-0.8125,-2.375,1
1541872435495309,-2,-1.8125,0.3125
1541872435516346,-0.4375,-1.0625,0.4375
1541872435533357,-1.25,-1.3125,0.0625
1541872435555368,-2.5625,-0.3125,-0.25
1541872435576395,-2.4375,-0.3125,0.75
1541872435592409,-1.375,-1.875,3.125
1541872435615428,-4.3125,-2.75,5.6875
1541872435636481,-4.5625,-3.5,8.8125
1541872435653456,-3.5625,-4.375,10.875
1541872435675458,-3.5,-5.625,12
1541872435697538,-5.4375,-7.0625,13.75
1541872435712508,-6.5625,-8.5,14.6875
1541872435735528,-4.875,-8.3125,15.8125
1541872435757541,-4.4375,-8.8125,15.6875
1541872435772560,-4.9375,-9.1875,16.0625
1541872435795578,-5.875,-9.125,15.875
1541872435817586,-6.0625,-8.75,15.5
1541872435832607,-5.0625,-8.4375,16.75
1541872435855643,-5.3125,-7.625,17.0625
1541872435877635,-5.3125,-7.5625,16.5625
1541872435892656,-4.625,-7.9375,16.9375
1541872435915676,-5,-8.25,16.125
1541872435937684,-4.5,-7.9375,15.1875
1541872435952706,-4.8125,-7.25,14.3125
1541872435975707,-3.3125,-6.4375,13.25
1541872435997726,-3.3125,-6.0625,10.6875
1541872436012753,-5.375,-6.625,7.6875
1541872436035792,-5.75,-6.625,6.125
1541872436057772,-4.9375,-6.5625,5.375
1541872436071804,-5.125,-5.75,4.375
1541872436095819,-5.875,-6.625,5.5
1541872436117838,-6.4375,-8.5625,7.8125
1541872436131853,-6.125,-9.0625,7.875
1541872436155868,-5.9375,-7.4375,5.3125
1541872436177887,-4.9375,-6.375,4.3125
1541872436198944,-4.5,-6,5.4375
1541872436215919,-5.3125,-4.6875,4.5
1541872436237922,-4.3125,-3.8125,4.625
1541872436258958,-4.125,-3.6875,5.6875
1541872436275968,-2.25,-3.4375,7.0625
1541872436297990,-1.625,-2.25,6.25
1541872436319008,-1.75,-1.5,5.6875
1541872436335021,-0.625,-2.8125,7.375
1541872436358039,-0.375,-2.1875,6.5
1541872436379094,-0.0625,-1.5,5.375
1541872436395071,0.125,-1.4375,4.4375
1541872436418089,0.0625,-1.1875,2.75
1541872436439106,-0.5625,-1.4375,1.625
1541872436455154,-0.875,-2.6875,3
1541872436478139,-1.6875,-3,2.875
1541872436499157,-1.5,-3.25,2.5
1541872436515161,-1.5625,-2.5625,1.8125
1541872436538189,-1.8125,-3.3125,1.1875
1541872436559206,-3.75,-4.3125,1.75
1541872436575215,-4,-4.25,2.0625
1541872436598239,-3.0625,-3.1875,1.9375
1541872436619256,-1.625,-2.6875,2.125
1541872436635264,-1.4375,-2.9375,2.9375
1541872436658283,-1.0625,-3.4375,3.8125
1541872436680288,-0.375,-3.3125,4
1541872436695297,0.1875,-3.5625,4.375
1541872436718332,0.4375,-2.6875,4.1875
1541872436740337,0.875,-1.25,3
1541872436755350,1.3125,-0.3125,1.8125
1541872436778387,0.625,0,0.375
1541872436800387,-0.375,0.5,-0.4375
1541872436815419,0.25,0.8125,-0.1875
1541872436838472,0.625,0.75,0.625
1541872436860445,-0.1875,0.25,1.5625
1541872436874466,-0.4375,-1.25,2.9375
1541872436898485,-0.8125,-2.3125,3.75
1541872436920495,-1.0625,-3.125,3.75
1541872436934516,-1.3125,-3.8125,4.0625
1541872436958516,-1,-4.3125,4.5
1541872436980537,1.1875,-4,2.9375
1541872436994549,0.9375,-4.4375,1.6875
1541872437017583,-0.8125,-4,1.0625
1541872437040602,-0.625,-3.25,0.125
1541872437054606,-0.4375,-2.5,0.1875
1541872437077633,-1.0625,-2.0625,0.375
1541872437100651,-1.25,-1.75,0.1875
1541872437114653,-0.6875,-1.625,0.4375
1541872437137682,-0.0625,-1.1875,-0.625
1541872437160682,0.3125,-0.9375,-1.4375
1541872437181755,0.625,-0.625,-2.25
1541872437197766,0.5,0.125,-2.75
1541872437220751,0,-0.125,-1.9375
1541872437225755,-1.0625,-0.0625,-1.8125
1541872437243750,0.75,-0.875,-0.5625
1541872437263769,1.25,-0.9375,-1.375
1541872437285807,1.4375,-1,-2.1875
1541872437303800,0.75,-1.5625,-2.5
1541872437323836,1.3125,-1.3125,-3.5
1541872437345853,2.3125,-1.0625,-3.75
1541872437363850,2.6875,0.5,-5.9375
1541872437383880,3.875,1.4375,-6.6875
1541872437405903,3.3125,2.375,-8.5625
1541872437422909,3.625,3.1875,-8.4375
1541872437443926,3.3125,2.8125,-7.5
1541872437465953,4.25,3.3125,-7.1875
1541872437482001,5.625,3.5625,-8.5
1541872437502984,5.25,3.75,-11.25
1541872437526002,7.3125,3.8125,-11.8125
1541872437542015,7.5,4.1875,-14
1541872437563032,6.5625,5,-17.8125
1541872437586051,6.9375,5.5625,-20
1541872437608070,8.1875,5.5625,-22.375
1541872437623082,7.0625,3.9375,-23.5
1541872437646100,6.75,3.1875,-26.5625
1541872437668119,6.75,1.625,-26.5625
1541872437683115,4.3125,2.0625,-27.75
1541872437706152,3.875,2.4375,-28
1541872437724166,4.75,2.875,-29.5625
1541872437743218,5.875,0.625,-28.4375
1541872437766201,4.4375,-0.3125,-28.9375
1541872437784210,2.1875,-1.25,-28.3125
1541872437803266,1.1875,-0.8125,-29.5
1541872437826250,2.375,-1.25,-27.3125
1541872437844260,4.0625,-0.5625,-28.0625
1541872437863282,3.5625,-0.375,-28.1875
1541872437886300,1.375,-1.125,-27.5
1541872437904315,-0.9375,-1.9375,-25.125
1541872437923321,-1.0625,-0.8125,-23.4375
1541872437946348,2.5625,0.375,-23.75
1541872437964363,6.75,0.5,-26.8125
1541872437983379,8.5625,-0.875,-29.1875
1541872438006394,3,-2.5,-27.375
1541872438024411,-2,0.3125,-27.75
1541872438043429,0.0625,3.125,-28.4375
1541872438066448,6.1875,3,-31.5
1541872438084463,9.0625,-0.375,-31.625
1541872438103514,4.875,-4.1875,-28.875
1541872438126490,0.75,-4.3125,-24.9375
1541872438143511,0.4375,-1.0625,-25.0625
1541872438163564,3.875,1.0625,-25.625
1541872438185546,9.5625,1.6875,-27.8125
1541872438203560,11.625,-0.5,-31.4375
1541872438225579,7.375,-2.4375,-34.625
1541872438245594,4.125,-1,-39.25
1541872438263593,5.25,2.9375,-45.4375
1541872438284611,6.9375,3.875,-53.125
1541872438313652,7.4375,3,-56.4375
1541872438323645,2.1875,3.8125,-58.4375
1541872438344673,-1.875,5.8125,-59.8125
1541872438365694,-2.0625,6.125,-61.0625
1541872438383691,-1.8125,4.1875,-60.875
1541872438404707,0,4.5,-62.0625
1541872438425743,2.1875,5.75,-64.75
1541872438443739,1.8125,5.5625,-65.75
1541872438464757,0.6875,4.4375,-65.0625
1541872438485794,-0.875,5.75,-63.625
1541872438503794,1.25,6.6875,-64.6875
1541872438526829,3.9375,5.0625,-66.5
1541872438545842,0.9375,4,-65.875
1541872438563837,-3.6875,5.75,-64
1541872438586875,-4.0625,8.0625,-63.5
1541872438605892,1.6875,7.75,-64.125
1541872438623888,3.8125,6.8125,-64.375
1541872438645925,-1.1875,7,-62.75
1541872438666942,-6.5625,7.9375,-60.75
1541872438682954,-1.4375,8.6875,-58.125
1541872438705992,4.6875,6.9375,-59
1541872438727028,4.375,4.625,-59.25
1541872438742986,-2.3125,4.8125,-58.5
1541872438766060,-5.5,5.75,-55.8125
1541872438787076,-1.1875,7.0625,-54.9375
1541872438803037,6.6875,6.8125,-57.4375
1541872438826073,7.75,4.8125,-59.9375
1541872438847090,2.1875,5.5,-62.9375
1541872438863085,-2.9375,4.75,-64.375
1541872438886157,-3.5,4.5,-61.75
1541872438907140,1.125,5.5625,-60.125
1541872438923135,4.375,4.8125,-59.1875
1541872438946172,1,3.625,-58.3125
1541872438967190,-2.25,3.375,-55.625
1541872438983196,-2.625,3,-53.9375
1541872439006222,1.4375,1.8125,-51.3125
1541872439027239,1.9375,0.8125,-48.125
1541872439043240,-1.6875,1.375,-46
1541872439065271,-3.5,2.0625,-43.4375
1541872439087285,-1.625,1.375,-41.6875
1541872439103284,2.25,0.3125,-38.625
1541872439125321,2.625,0.1875,-36.1875
1541872439146336,-2.125,2.625,-33.9375
1541872439163370,-5.0625,4,-31.9375
1541872439185413,-3.125,4.3125,-32.125
1541872439206387,2.9375,3.1875,-33.0625
1541872439223401,6,0.0625,-34.9375
1541872439245453,4.75,-0.4375,-34.125
1541872439274443,0.1875,1.9375,-34.6875
1541872439282440,1.8125,3.5625,-36.125
1541872439305469,5.0625,2.9375,-39.5
1541872439326485,8.3125,2.125,-42.6875
1541872439342481,11.1875,1.75,-47.5625
1541872439365514,13.5,0.25,-52.625
1541872439386535,13.875,-1.875,-55.1875
1541872439402529,11.375,-2.25,-56.3125
1541872439425557,8.125,-1.625,-56.1875
1541872439446585,3.625,-0.75,-55.125
1541872439462584,4.6875,0.125,-52.25
1541872439485599,4.625,1.6875,-49.1875
1541872439508635,2.8125,3.0625,-48.25
1541872439522632,-1.5,4.875,-46.6875
1541872439545646,-3.0625,4.5,-44.375
1541872439568721,-1.125,4.125,-42.5
1541872439582696,1.3125,3.6875,-42.75
1541872439605697,5,3.1875,-43.875
1541872439628735,6,3.1875,-45.75
1541872439649751,4.8125,4.0625,-47.625
1541872439665756,8.3125,3.5625,-49.3125
1541872439688777,9.25,1.6875,-49.4375
1541872439709802,7.5,0.125,-48.625
1541872439725807,7.5,0,-49.625
1541872439748845,5.4375,0.9375,-47.375
1541872439769845,0.625,-0.625,-44.5
1541872439785845,-1.5,-2.125,-40.875
1541872439808878,-0.375,-4.4375,-37.5625
1541872439829897,1.875,-5.0625,-34.5625
1541872439845914,3.1875,-5.375,-32.1875
1541872439867967,3.3125,-6.8125,-30
1541872439888950,6.9375,-8.375,-28.5625
1541872439905944,11.1875,-10.75,-26.1875
1541872439928003,15.25,-11.3125,-22.375
1541872439948999,15,-11.6875,-18.25
1541872439966008,12.3125,-11.0625,-14.125
1541872439988021,12.1875,-10.125,-10.3125
1541872440009048,12.4375,-9.1875,-6.1875
1541872440026061,9.75,-8,-2.6875
1541872440048062,4.375,-6.5625,0.625
1541872440069098,-2.5,-4.4375,2.8125
1541872440086111,-2.1875,-3.9375,4.8125
1541872440108110,3.5625,-3.875,6.625
1541872440129183,8.0625,-3.9375,8
1541872440146162,10.3125,-3.8125,9.6875
1541872440168177,10.8125,-3.4375,11.25
1541872440189232,10.5625,-3.125,12.375
1541872440206212,10.3125,-2.75,12.75
1541872440228209,10.0625,-2.3125,12.625
1541872440249246,9,-2.3125,12.4375
1541872440266260,7.625,-2.5625,12.3125
1541872440288259,6.5,-2.8125,11.5
1541872440309296,6.75,-3.0625,10.6875
1541872440326342,6.3125,-3.25,9.4375
1541872440348309,5.5,-3.375,8.1875
1541872440369345,5.3125,-3.4375,6.8125
1541872440386341,5.0625,-3.4375,5.4375
1541872440408369,4.25,-3.1875,4.1875
1541872440431390,3.5625,-2.875,2.75
1541872440446388,3.125,-2.5625,1.5625
1541872440468408,1.75,-2.25,0.25
1541872440490445,0.375,-1.875,-0.8125
1541872440505457,-0.625,-1.4375,-1.9375
1541872440528472,-2.0625,-0.875,-3
1541872440550495,-2.625,-0.6875,-3.8125
1541872440565506,-3.25,-0.4375,-4.375
1541872440588526,-5,0.0625,-5.0625
1541872440610540,-5.625,0.3125,-5.375
1541872440625556,-4.875,0.375,-5.5
1541872440648575,-3.625,0.375,-5.5625
1541872440670590,-3.5625,0.375,-5.25
1541872440685606,-4.4375,0.4375,-4.6875
1541872440708624,-5.8125,-0.375,-3.625
1541872440730639,-10.125,-4.625,-1.8125
1541872440745656,-12.8125,-2.375,1.625
1541872440768655,-10.4375,-1.8125,7.0625
1541872440790692,-4.3125,-1.3125,13.125
1541872440805704,-3.125,-0.5,19.625
1541872440828725,-5.5,-0.6875,24.5
1541872440850732,-3.1875,-2.5625,29.1875
1541872440871758,0.1875,-4.625,33.9375
1541872440888773,5.4375,-5.6875,40.5
1541872440910771,10.625,-5.5625,46.3125
1541872440931808,14.625,-7.25,52.5625
1541872440947822,15,-9.25,57.625
1541872440970825,18.125,-13.5,64.4375
1541872440991858,29.9375,-14.1875,73.25
1541872441008872,36,-15.3125,82.375
1541872441030881,40.6875,-15.3125,92.5
1541872441051901,43.5,-12.625,104.625
1541872441075919,45.25,-10.75,113.313
1541872441090922,46.8125,-9.3125,121.313
1541872441111953,47.75,-7.3125,131.313
1541872441128952,46.1875,-6.1875,139.688
1541872441150970,46.75,-6.5625,148.813
1541872441172006,46.4375,-4.375,158.875
1541872441188019,39.6875,-1.625,164.188
1541872441217043,43.3125,-2.25,168.188
1541872441232055,49,-5.75,170.125
1541872441248068,47.5625,-11.1875,167.5
1541872441271070,38.1875,-15.75,156.313
1541872441292106,31.5625,-23.0625,152.375
1541872441308118,31.0625,-25.5,148.125
1541872441331137,36.375,-33.5,130.188
1541872441352190,46.125,-30.9375,131.313
1541872441368149,43.0625,-36.125,120.438
1541872441391186,38.25,-40.5625,115.938
1541872441413208,38.9375,-46.0625,104.438
1541872441428218,41.0625,-50,95.8125
1541872441451236,44.6875,-57.0625,85.25
1541872441473235,54.25,-63.75,71.5
1541872441494272,63.9375,-65.25,55
1541872441511285,69.125,-65.6875,38.75
1541872441533290,63.8125,-65,28.75
1541872441554322,63.5,-64.6875,18.5625
1541872441571335,65.4375,-67.9375,9.125
1541872441593333,56.25,-64.75,1.875
1541872441614372,47.625,-59.8125,-6.1875
1541872441621377,47.5625,-54.3125,-11.4375
1541872441636388,55.4375,-59.6875,-15.125
1541872441659389,47.5,-59.8125,-16.5
1541872441676425,33.8125,-57.3125,-17.8125
1541872441696438,22.25,-51.5,-18.3125
1541872441719438,28.4375,-43.375,-18.875
1541872441738473,32.3125,-42.3125,-18.75
1541872441756487,28.75,-41.3125,-16.5625
1541872441778505,25.25,-36.625,-13.125
1541872441801525,23.5625,-34.75,-11.125
1541872441816537,19.25,-32.875,-11.3125
1541872441838555,17.0625,-30.9375,-12.5625
1541872441856551,15.9375,-22.3125,-10
1541872441876582,13.5625,-10.5,-0.875
1541872441898605,3.3125,-4.9375,8.4375
1541872441915635,-2.375,-5.4375,7.25
1541872441936617,1.6875,-5.4375,4.1875
1541872441958690,11.625,-2.0625,0.4375
1541872441975669,5.9375,-2.9375,-1.125
1541872441996685,-6.5625,-4.625,-2.875
1541872442018684,-7.75,-2.75,-4.25
1541872442035709,4,-3.375,1.4375
1541872442056736,17.125,-2.75,2.0625
1541872442078737,3.875,1.1875,0.3125
1541872442095787,-8.625,4,-2.75
1541872442116785,-6.6875,3.9375,-0.4375
1541872442138802,3.3125,3,0.4375
1541872442155798,2.8125,1.25,-1.3125
1541872442176834,1.1875,2.4375,-1.1875
1541872442198852,3.3125,2.4375,0.5
1541872442215867,-2.125,-0.375,-0.25
1541872442236885,-1.5625,-0.6875,-1.25
1541872442258883,1.5,-0.3125,-2.125
1541872442275900,1.5625,0.9375,-2.375
1541872442296970,4.75,0.6875,-1.5
1541872442318950,6.25,0.0625,-1.0625
1541872442336966,7.5625,-0.4375,-0.0625
1541872442356978,6.25,-2.25,0.6875
1541872442378996,4,-0.6875,0.1875
1541872442397010,-3.0625,1.8125,0.375
1541872442416032,-6.1875,2.4375,0.3125
1541872442439050,-1.375,1,0.875
1541872442457064,3.25,-0.125,0.875
1541872442476081,2.3125,0.375,1.0625
1541872442494089,0,0.4375,0.9375
1541872442517114,-1.125,1,0.875
1541872442536132,-2.0625,2.125,0.5625
1541872442554126,-2.5,2.5,1.25
1541872442577182,-3.9375,1.4375,1.5
1541872442596180,-5.75,1,1.5
1541872442614176,-3.125,2.0625,1
1541872442637214,-2.875,2.9375,0.625
1541872442656229,-3.25,2.5,0.625
1541872442674225,-3.75,2,0.5
1541872442697263,-1.8125,1.5,0
1541872442716259,-0.875,1,0
1541872442739294,-2.9375,2.25,-0.8125
1541872442757309,-6.375,1.0625,-0.125
1541872442776311,-2.9375,0.5,-0.1875
1541872442796328,0.125,0.6875,-0.1875
1541872442817363,2.3125,0.3125,-0.1875
1541872442836360,0.3125,0.125,-0.5
1541872442854387,-0.625,0.8125,-0.875
1541872442877412,1.4375,1,-0.375
1541872442898430,2.125,0.1875,-0.375
1541872442914436,-0.375,0.5,-0.9375
1541872442937453,-1.1875,1,-0.125
1541872442958474,3.3125,0.8125,-0.25
1541872442974483,4.6875,0.375,-0.9375
1541872442997501,4.4375,0.9375,-1.0625
1541872443018527,2.125,1.4375,-0.75
1541872443033520,1.25,1.6875,-0.375
1541872443056595,2.3125,2.0625,-0.25
1541872443077613,3.3125,1.9375,0.25
1541872443093571,3.3125,1.375,0.0625
1541872443116608,2.5625,1.0625,-0.0625
1541872443137625,-2.5,1.3125,-2.25
