timestamp,x,y,z
1541874448774648,-15.3125,23.125,-8.0625
1541874448775650,-23.0625,6.3125,-39.6875
1541874448776650,-21.625,-7.0625,-74
1541874448796666,-24.9375,-26.9375,-110.625
1541874448835696,-41.4375,-32.5625,-118
1541874448838698,-36.75,-40.125,-127.875
1541874448856713,-6.5625,-47.75,-145.063
1541874448877766,18.625,-53.25,-159.813
1541874448894763,19.75,-60.625,-171.75
1541874448961813,6.375,-65.125,-184.25
1541874448961813,3.9375,-65.125,-195.188
1541874449014853,21.5,-61,-200.375
1541874449216050,46.75,-61.1875,-195.875
1541874449456238,38.9375,-58.375,-183.125
1541874449458240,7.5,-46.8125,-164.063
1541874449479222,65.0625,4.3125,38.0625
1541874449481222,95.3125,-29.8125,189.25
1541874449517271,82.9375,-31.875,191.25
1541874449524293,81.6875,-34.625,194.375
1541874449526258,86.75,-37.375,195.188
1541874449548272,98.125,-39.6875,193.938
1541874449560323,106.25,-38.8125,191.813
1541874449583304,108.063,-35.3125,186.563
1541874449597295,103,-33.125,180.313
1541874449620315,92.1875,-34.6875,168.313
1541874449643385,79.0625,-31.3125,153.813
1541874449697388,67.375,-24.8125,134.625
1541874449718444,58.4375,-23.75,107.25
1541874449721429,57.375,-26.1875,73.875
1541874449765428,53.0625,-27,45.125
1541874449771451,52.0625,-26,17.9375
1541874449773447,32.8125,-36.6875,-34.9375
1541874449791501,20.5,-48.8125,-64.8125
1541874449813484,18.25,-55.3125,-99.625
1541874449828495,22.25,-55.75,-123.813
1541874449851494,1.1875,-58.375,-133.563
1541874449873567,-26.4375,-64.3125,-143.875
1541874449888578,-28.375,-65.8125,-154.063
1541874449911544,-17.75,-63.125,-161.313
1541874449936562,-15.3125,-58.75,-167
1541874449948586,-28.5625,-52.6875,-172.75
1541874449971642,-47,-44.5,-177.375
1541874449993625,-64.5,-36.25,-180
1541874450008637,-84,-27.5625,-182.188
1541874450031636,-102.938,-18.3125,-181.563
1541874450062714,-118.063,-8.375,-177.688
1541874450071667,-124.375,-1.125,-170.5
1541874450107695,-123.75,3.5,-161.813
1541874450122718,-115.875,4.625,-152.438
1541874450167746,-97.3125,3.75,-140.375
1541874450191778,-66.5,0.4375,-122
1541874450200789,-35.8125,-4.9375,-96.4375
1541874450253825,-4.1875,-10.375,-41
1541874450275847,-5.4375,-11.125,-16.5
1541874450326877,7.3125,-17.875,25.3125
1541874450348939,1.75,-21.5,45.8125
1541874450350941,1.75,-11,78.5
1541874450365914,17.875,-9.0625,105.5
1541874450400945,35.125,-10.125,130.813
1541874450402927,51.6875,-12.1875,154
1541874450413955,65.875,-15.0625,169.688
1541874450428963,75.75,-15.6875,173.063
1541874450450980,84.125,-11.875,170
1541874450473985,86.125,-4.3125,171.313
1541874450492051,65.875,-0.9375,169.625
1541874450514015,51.75,1.4375,168.438
1541874450529037,67.0625,8.5,172.625
1541874450549097,77.125,14,170.563
1541874450571075,75.6875,18.6875,167.188
1541874450589074,75.25,22.0625,160.625
1541874450609091,83.1875,24.5625,153
1541874450631125,90.5,28.3125,142.375
1541874450649140,87.625,33.5625,129.563
1541874450670137,69.3125,36.8125,115.438
1541874450694156,45.375,39.1875,98.6875
1541874450717190,33.0625,42.3125,77.5625
1541874450730185,20.125,42.625,51.8125
1541874450751221,-4.6875,42,21.625
1541874450769235,-33.5625,36.625,-10.125
1541874450791246,-52.375,20.1875,-43.9375
1541874450811269,-51.75,0.3125,-81.625
1541874450829281,-27.3125,-13.8125,-115.75
1541874450850298,-1.75,-17.8125,-129.563
1541874450871311,-6.75,-20.4375,-129.188
1541874450889328,-29,-25.5,-128.125
1541874450910344,-40.125,-26.875,-129
1541874450934365,-34,-20.75,-128.688
1541874450949375,-33.5,-15.9375,-126.938
1541874450970392,-56.9375,-15.875,-126.063
1541874450991444,-85.375,-15.875,-127.938
1541874451009420,-101.25,-14,-129.875
1541874451031421,-105.625,-13.0625,-130.125
1541874451058461,-111.25,-16.875,-129.375
1541874451069470,-110.313,-22.3125,-129.313
1541874451091470,-105.125,-28.375,-129
1541874451114500,-96.6875,-33.875,-127.75
1541874451136505,-95.4375,-37.875,-125.25
1541874451159522,-89.0625,-41.875,-120.938
1541874451188544,-84,-44.5625,-113.063
1541874451190546,-73.4375,-46.0625,-103.5
1541874451234596,-59.5625,-47.875,-92.6875
1541874451248610,-40.5,-47.3125,-82.6875
1541874451251609,-24.25,-44.0625,-72.0625
1541874451272650,-30.3125,-39,-62.0625
1541874451291639,-50.125,-31.9375,-52.125
1541874451315646,-69.25,-26.3125,-40.75
1541874451338672,-78.3125,-23.3125,-27.8125
1541874451377705,-69.375,-20.5,-13.4375
1541874451391724,-42.625,-14.5,2.1875
1541874451393705,-17,-6.6875,22.0625
1541874451422745,-7.4375,3.875,42.875
1541874451443768,-3.25,14.875,61.0625
1541874451466782,10.0625,28.3125,77.9375
1541874451488834,26.875,44.375,95.3125
1541874451491798,25.375,60.3125,113.625
1541874451524862,11.3125,75.4375,127.75
1541874451531833,-7.6875,92.5625,138.875
1541874451555838,-33.25,100.75,148.313
1541874451578882,-54.875,103.938,155.813
1541874451600869,-51.5,101,157.813
1541874451639899,-33.1875,97.3125,154
1541874451681952,-11.9375,92,145.75
1541874451692950,2.625,88.1875,132.813
1541874451735993,10.1875,81.8125,117.938
1541874451745989,17.8125,66.0625,78.25
1541874451752000,8.5625,56.8125,34.125
1541874451788035,-3.875,46.25,10.9375
1541874451791018,-4.0625,35.9375,-11.1875
1541874451812050,-2.8125,27,-32.25
1541874451834052,-5.9375,20,-52.875
1541874451863085,-14.625,18.0625,-73.75
1541874451878086,-26.1875,15.875,-94.875
1541874451899158,-45.0625,12.625,-110.25
1541874451916116,-52.5,11.3125,-119.688
1541874451970172,-48.9375,14.75,-125.625
1541874451982182,-47,19.9375,-129.813
1541874452066254,-73.3125,20.25,-143.25
1541874452089306,-101.313,19.375,-153.313
1541874452104263,-101.125,15.5,-148.375
1541874452150299,-87.0625,4.625,-141.438
1541874452172353,-83.0625,1.625,-138.5
1541874452173321,-83.6875,-0.9375,-136
1541874452405501,-86.6875,-4.0625,-133.313
1541874452426536,-87.25,-6.4375,-131.375
1541874452442548,0,-16.25,12.0625
1541874452448540,-5.75,-9.6875,24.75
1541874452463564,-5.75,-5.6875,33.25
1541874452472572,2.5625,-3.75,38.4375
1541874452493586,17.6875,-3.0625,40.625
1541874452515598,33.0625,-1.75,40.9375
1541874452546630,49.125,3.75,43.6875
1541874452599652,61.125,11.375,48.5625
1541874452628732,57.25,17.6875,53.75
1541874452653696,31.5,36.1875,63.5
1541874452675732,21.8125,43.8125,73.1875
1541874452696732,17.8125,48.625,97
1541874452698730,22.5,50.25,99.75
1541874452750791,29,52.5,100.063
1541874452772805,28.5,52.5,98.375
1541874452773789,25.0625,50.875,96.1875
1541874452846877,21.3125,45.0625,90.625
1541874452862862,27.1875,38.9375,83.5625
1541874452885896,41,18.4375,64.75
1541874452958989,44.6875,8.4375,59.25
1541874452961960,49.0625,0.375,53.9375
1541874452982953,54.1875,-7.5625,50.5
1541874452986977,68.75,-25.6875,45.8125
1541874453010030,64.5,-24.375,46.125
1541874453017000,53.5,-20,45.4375
1541874453033011,39.9375,-16.9375,43.6875
1541874453062016,26,-14.3125,41.8125
1541874453077047,14.4375,-11.1875,41.3125
1541874453094044,6.3125,-8.6875,42.125
1541874453116059,5.4375,-7.8125,43.125
1541874453139089,13.0625,-8.3125,44.9375
1541874453161110,19.4375,-8.5625,45.25
1541874453183132,24.375,-9.1875,45.375
1541874453214155,24.1875,-10.625,45.9375
1541874453216150,20.75,-14.8125,46.125
1541874453236168,21.25,-18,46.875
1541874453266188,25.5625,-18.1875,50
1541874453273182,34.6875,-17,51.25
1541874453296220,42.25,-15.25,51.875
1541874453317249,41.3125,-12.375,51.0625
1541874453341272,34.125,-10.3125,49.6875
1541874453363268,27.6875,-9.8125,49.75
1541874453384289,22.6875,-11.4375,50.3125
1541874453393286,23.3125,-10.1875,50.875
1541874453439331,25.8125,-10.5625,51.1875
1541874453441313,27.3125,-7.9375,54.3125
1541874453461330,24.9375,-6.8125,57.25
1541874453476356,18.9375,-6.3125,61.375
1541874453497376,14.375,-6.125,65.75
1541874453519390,18.3125,-6.9375,70.375
1541874453544412,24.625,-9.3125,73.875
1541874453564429,28.375,-11.4375,77.5625
1541874453573418,30.5,-14.3125,82.4375
1541874453596435,33.875,-15.375,87.75
1541874453618453,37.75,-13.875,91.6875
1541874453640470,37.4375,-12.375,93.125
1541874453656484,33.0625,-11.75,93.0625
1541874453693531,25.8125,-10.0625,91.9375
1541874453695525,20.6875,-8.1875,88.8125
1541874453716530,11,-4,85.0625
1541874453737557,1.8125,-1.875,80.75
1541874453752559,-7.125,-1.125,85.9375
1541874453775596,-0.375,-1.25,90.4375
1541874453798613,12.9375,0.625,92.625
1541874453812608,18,0.375,94.5625
1541874453835642,9.75,-0.375,97.25
1541874453858661,7.75,-1.625,95.5625
1541874453872663,12.375,-3.8125,100.438
1541874453895670,14.8125,-3.375,105.438
1541874453918689,14.8125,-0.375,109.688
1541874453932702,12.3125,-3.75,113.125
1541874453955738,10.9375,-3.8125,118.313
1541874453978757,14.4375,-6.5625,116.125
1541874453999752,16.375,-3.75,114.625
1541874454015765,11.125,-1.8125,112
1541874454038783,7,-2.125,109.375
1541874454059799,8.25,-0.9375,106.438
1541874454083857,11.6875,-3.5,103.25
1541874454098850,17.5,-12.6875,98.125
1541874454119902,8.9375,-8.6875,76.9375
1541874454135859,-3.3125,-2.5,65
1541874454158933,6.625,8.6875,54.3125
1541874454179948,-3.8125,22.4375,57.75
1541874454195906,7.5,15.375,51.4375
1541874454218944,14.25,-2.6875,57.6875
1541874454239960,34.875,-23.375,51.25
1541874454255008,34.4375,-35.0625,49.5625
1541874454261974,19.3125,-47.125,45.125
1541874454283998,14.9375,-63.5625,45.625
1541874454306013,16.3125,-79.5625,42.6875
1541874454332028,12.875,-88.0625,41
1541874454345058,11.9375,-95.25,37.6875
1541874454366041,15.75,-100.625,31.75
1541874454381054,16.4375,-101.125,27.1875
1541874454404089,7.125,-98.3125,22.1875
1541874454426106,-3.8125,-96.625,21.875
1541874454441102,2.5,-94.625,22.875
1541874454464172,10.5,-92.625,27.4375
1541874454486154,12.5,-90.5625,30.625
1541874454501165,5.5,-92.75,29.125
1541874454524219,-3.125,-93.9375,20.375
1541874454546206,-5.1875,-96.875,13
1541874454561197,4.75,-99.5,5.5
1541874454584230,15.8125,-99.125,1.0625
1541874454602281,26.4375,-94.6875,-0.625
1541874454621260,21.25,-89.6875,-5.625
1541874454644278,-0.125,-87.0625,-10.875
1541874454662273,-3.625,-82,-13.375
1541874454681308,23.375,-75.0625,-16
1541874454711311,53.9375,-65.5625,-16.6875
1541874454722374,45.375,-59,-22.3125
1541874454741337,12.4375,-53,-27.3125
1541874454764372,-2.0625,-50.75,-23.1875
1541874454782382,35.6875,-40.75,-11.125
1541874454809409,62.8125,-29.9375,-5.6875
1541874454824420,28.625,-16.6875,4.125
1541874454842423,6.5625,-0.625,7.875
1541874454869449,4.6875,7.875,8.3125
1541874454892473,10,8.875,5.0625
1541874454909486,11.125,5.1875,2.75
1541874454921496,10.875,1.9375,3.4375
1541874454946515,11.6875,2.125,5.9375
1541874454961527,12.8125,3.3125,9.4375
1541874454981534,12.4375,7.3125,10.8125
1541874455011562,8.6875,11.5625,10.8125
1541874455021566,3.5625,18.5625,8.125
1541874455041589,3.9375,22.9375,3.1875
1541874455063590,6.5625,27.5,-2.75
1541874455081602,10.6875,32.25,-7.8125
1541874455104657,11.5,37.125,-14.5625
1541874455123655,10,40.625,-19.5
1541874455146673,10.25,39.1875,-19.5625
1541874455161687,14.5,41.1875,-19
1541874455183703,13.3125,43.875,-16.8125
1541874455209724,4.875,48.625,-15.125
1541874455221769,-4.375,55.1875,-11.625
1541874455243784,-9.375,58.75,-2.375
1541874455261745,-17,56.5625,0.1875
1541874455281779,-22.75,61.375,4.4375
1541874455303779,-25.6875,62.5,4.125
1541874455321790,-25.75,63.1875,1
1541874455341825,-11.625,62.625,3.8125
1541874455363843,-9.5625,60.75,-0.1875
1541874455381849,-34.1875,58.5625,-5.6875
1541874455402855,-54.25,64.8125,1.375
1541874455431877,-49.4375,70.1875,5.875
1541874455441886,-39.3125,70.6875,9.6875
1541874455462917,-39.75,66.0625,9.75
1541874455483938,-39.0625,62.875,7.75
1541874455506956,-25.375,56.25,0.6875
1541874455522956,-11.8125,53,-5.625
1541874455543980,-0.375,50.75,-14.0625
1541874455561981,-2.75,50.5,-22.1875
1541874455582997,-18.625,47.4375,-34.0625
1541874455604032,-23.0625,44.625,-44.5
1541874455622046,-18,38.8125,-53.1875
1541874455643062,-13.125,37.4375,-60.1875
1541874455665080,-15.375,37,-76
1541874455686077,-27.375,33.5625,-89.1875
1541874455704107,-26.3125,30.6875,-97.0625
1541874455725126,-16.875,28.625,-104.188
1541874455741120,-15.75,19.6875,-109
1541874455771146,-24.6875,6.4375,-114.375
1541874455785155,-39.75,-9.4375,-128.625
1541874455801168,-45.375,-25.0625,-144.25
1541874455824198,-42.375,-37.875,-158.563
1541874455845218,-42.5,-50.4375,-170.75
1541874455861223,-47.8125,-61.875,-177.063
1541874455891257,-52.25,-70.1875,-173.75
1541874455905266,-47.3125,-74,-164.438
1541874455928281,-18.5625,-77.8125,-143.063
1541874455943279,1.875,-68.5,-132.25
1541874455964316,-3,-60.9375,-121.313
1541874455981328,-21.1875,-57.0625,-118.313
1541874456003336,-50.1875,-53.1875,-124.25
1541874456024362,-90.6875,-47.75,-136.375
1541874456041358,-130.875,-36.125,-149.25
1541874456064393,-135.625,-20.0625,-151.563
1541874456092418,-122.938,-11.375,-153.188
1541874456108409,-110.938,-6.25,-148.75
1541874456131429,-101.5,-4.3125,-143.5
1541874456206505,-101.125,-5.6875,-135.25
1541874456209507,-100.938,-5.4375,-127.313
1541874456237510,-95.625,-0.6875,-118.625
1541874456239532,-91.8125,13.1875,-99.3125
1541874456245517,-95.75,17.3125,-89.875
1541874456264551,-101.188,19.75,-80.625
1541874456281564,-98.8125,22.8125,-71.3125
1541874456311589,-91.5625,29.875,-62.0625
1541874456332604,-94.375,38.5,-52.9375
1541874456341613,-99.25,46.25,-42.75
1541874456371635,-98.25,51.3125,-32.1875
1541874456447712,-90.1875,54.5,-21.6875
1541874456498730,-80.375,55.625,-12.9375
1541874456552777,-62.4375,55.5625,3.5625
1541874456641828,-61.3125,53.8125,10.3125
1541874456655838,-66.3125,46.9375,6.625
1541874456686863,-22.125,30.3125,-17.5625
1541874456688865,-19.6875,26.25,-19.75
1541874456717888,-22.25,22.8125,-16.625
1541874456729911,-32,19.1875,-17.625
1541874456860000,-38,22.5625,-20.4375
1541874456865004,-42.625,24.9375,-27.4375
1541874456912061,-70.375,20.75,-47.1875
1541874456935059,-77.375,22.125,-50.3125
1541874456966138,-87.25,20.625,-58.9375
1541874456995124,-83.125,17.5625,-63.125
1541874457016177,-80.125,9.125,-68.9375
1541874457068220,-74.875,3.25,-71.75
1541874457143221,-62.9375,-2.5625,-73.625
1541874457152244,-47.3125,-8.9375,-74.9375
1541874457182315,-27.6875,-22.0625,-67.9375
1541874457183255,-32.75,-20.8125,-58.25
1541874457205290,-37.75,-19.9375,-54.375
1541874457209288,-41.1875,-20.0625,-49
1541874457228303,-44.4375,-20.875,-43.625
1541874457256310,-42.8125,-22.75,-36.1875
1541874457271324,-39.1875,-25.9375,-28.25
1541874457301347,-27.4375,-31.625,-18.375
1541874457324383,12.5,-37.1875,-6.0625
1541874457326385,63.6875,-41.375,9.6875
1541874457452467,71.125,-37.8125,29.125
1541874457474501,55.125,-28.875,41.4375
1541874457489513,-30.3125,14.75,56.4375
1541874457491495,-32.375,17.875,64.0625
1541874457504520,-26.375,18.375,72.5625
1541874457527542,-18.5625,18.5625,79.625
1541874457564563,-10.125,18.75,84.375
1541874457625611,-3.625,18.9375,85.3125
1541874457639630,1.5625,18.625,83
1541874457676697,13,18,73.625
1541874457679665,16.4375,17.5,67.3125
1541874457708686,15.3125,16.9375,59.9375
1541874457719694,13.375,16.125,51.9375
1541874457731703,7.5625,13.625,33.25
1541874457751754,4.3125,12.5,22.0625
1541874457773717,0.1875,11.5,9.375
1541874457788729,-8.8125,11.5625,-5.1875
1541874457817754,-17.0625,11.625,-21.25
1541874457833764,-17.1875,11.375,-34.875
1541874457856796,-15.0625,6.1875,-44.8125
1541874457894823,-12.8125,5.9375,-50.25
1541874458096990,-18.5625,7.875,-50.1875
1541874458098988,-35.375,5.75,-51.375
1541874458105983,-41.875,-0.375,-61.875
1541874458118988,-100.813,2.5,-53.5
1541874458140023,-94.75,2.625,-53.0625
1541874458149013,-88.3125,2.8125,-56.4375
1541874458170048,-80.0625,2.4375,-59.1875
1541874458194084,-69.0625,0.8125,-61.8125
1541874458223090,-62,-4.125,-63.3125
1541874458237101,-64.9375,-8.0625,-62.0625
1541874458246088,-60.375,-7.375,-59.4375
1541874458269145,-54.0625,-4,-52.125
1541874458299145,-53.375,-5.5,-44.9375
1541874458323171,-54,-8.5625,-40.625
1541874458367202,-54.5,-10.5,-36.1875
1541874458369184,-51.3125,-11.625,-32.1875
1541874458374204,-46.25,-13.8125,-26.4375
1541874458397226,-41.75,-17,-18.4375
1541874458412238,-38.75,-19.6875,-10
1541874458457273,-37.5625,-22.125,-1.8125
1541874458472285,-34.4375,-24.125,5.625
1541874458478280,-32.1875,-22.875,10.9375
1541874458496304,-34.3125,-18.8125,15.4375
1541874458509313,-38.5,-12.4375,21.1875
1541874458530366,-42.25,-4.9375,29.6875
1541874458546323,-45.6875,1.5625,39
1541874458570361,-39.625,6.6875,48.9375
1541874458593361,-34,10.5625,56.375
1541874458616393,-35.0625,13.3125,61.3125
1541874458636394,-42.75,16.1875,64.9375
1541874458652410,-53.0625,19.0625,67.3125
1541874458667439,-66.375,25.8125,69.4375
1541874458688455,-84.875,35,71.375
1541874458694441,-89.1875,36.9375,74.5
1541874458716477,-69.75,32.5625,77.3125
1541874458742479,-51.125,31.25,78
1541874458761507,-40.375,33.25,77.375
1541874458803545,-36.875,37.125,75.9375
1541874458816560,-30.5625,39.125,73.875
1541874458818537,-29.6875,38.75,69.75
1541874458839553,-23.75,37.875,64.125
1541874458862592,-16.9375,36.25,57.6875
1541874458915629,-10.1875,35.25,49.8125
1541874458937630,-3.3125,34,40.4375
1541874458952643,-7.8125,32.9375,15.625
1541874458974713,-14.4375,33.875,2.25
1541874459002716,-23.5625,33.5625,-9.375
1541874459057735,-31.4375,33.0625,-19.9375
1541874459063745,-34.5,30.5,-32.0625
1541874459086803,-33,20.75,-58.1875
1541874459089805,-29.5,15.4375,-67.1875
1541874459101779,-24.5625,11.5625,-73.6875
1541874459124797,-17.6875,9.5,-74.75
1541874459145808,-11.6875,7.1875,-72.625
1541874459154802,-11.5625,5.125,-68.875
1541874459174829,-18.3125,4.4375,-66.0625
1541874459204897,-31.6875,5.0625,-65.5625
1541874459212866,-47.125,7.4375,-66.5
1541874459241889,-57.125,11,-68.5625
1541874459256900,-60.9375,12.25,-70.625
1541874459272905,-62.9375,13.4375,-75.5625
1541874459293930,-67.125,15.8125,-80.625
1541874459316948,-72.625,16.9375,-84.5
1541874459332943,-79.3125,16.25,-84.5625
1541874459353977,-85.0625,15.375,-84.4375
1541874459376995,-83.8125,13.5,-84.3125
1541874459395005,-78.75,10.0625,-81.6875
1541874459414011,-72.375,6.4375,-78.1875
1541874459437042,-65.9375,2.75,-74
1541874459453048,-61.0625,-0.9375,-69.75
1541874459474071,-54.25,-6,-66.5625
1541874459497089,-47.1875,-11.875,-62.8125
1541874459521108,-39.5625,-17,-58
1541874459534121,-35.875,-21.625,-51.1875
1541874459557139,-35.5625,-25.875,-43.75
1541874459579150,-39.6875,-30.125,-35.875
1541874459594166,-43.4375,-33.375,-27.625
1541874459617184,-45.625,-35.1875,-18.1875
1541874459635194,-42,-34,-9
1541874459657196,-21.1875,-32.4375,1.4375
1541874459677230,0.8125,-32.1875,12.8125
1541874459701287,18.5,-29.1875,23.5
1541874459730273,25.875,-22.375,34.5625
1541874459740262,20.625,-13.3125,43.0625
1541874459762298,8.625,-4,51.1875
1541874459774307,-4.9375,5.375,56.8125
1541874459797327,-8.9375,10.75,63.125
1541874459814374,-2.0625,13.6875,71.4375
1541874459836352,-2.9375,15.4375,81.375
1541874459859408,-10.25,19.875,90.3125
1541874459888432,-15.9375,26.3125,98
1541874459894437,-21.625,31,101.625
1541874459917419,-25.5,31.8125,101.5
1541874459934428,-21.125,29.375,96.8125
1541874459961455,-10.625,26.3125,88.8125
1541874459979450,-0.9375,26.6875,80.125
1541874459994478,1.0625,29.0625,72.6875
1541874460021537,0.125,31.5625,66.3125
1541874460032511,-6.25,31.75,58.9375
1541874460054509,-7.75,30.4375,50.3125
1541874460074543,-10.9375,29.5,40.375
1541874460092554,-13.5,30.875,29.125
1541874460114565,-13.875,35,19.6875
1541874460135584,-21.1875,37.8125,7.75
1541874460164614,-41.6875,38.125,-5
1541874460173621,-51.9375,39.9375,-20.3125
1541874460194640,-49.6875,42.3125,-35.125
1541874460217651,-51.625,40,-50.0625
1541874460233665,-56.1875,33.4375,-57.3125
1541874460254719,-51.375,26.9375,-66.25
1541874460278699,-44.625,23.125,-74.5625
1541874460293696,-41.625,19.875,-80.9375
1541874460314768,-44.4375,18.3125,-84.8125
1541874460330724,-55.625,19.3125,-84.5
1541874460353743,-70.1875,19.9375,-84.3125
1541874460374815,-83.25,18.9375,-84.1875
1541874460390773,-90.4375,17,-81.1875
1541874460413791,-88.6875,14.5,-78.625
1541874460434827,-84.25,11.75,-75.9375
1541874460450820,-78.875,9.0625,-73
1541874460473841,-78.6875,11.4375,-71.6875
1541874460496856,-87.0625,15.3125,-69.8125
1541874460510868,-95.4375,15.125,-68.125
1541874460533884,-98.75,12.1875,-68.875
1541874460556918,-91.875,8.8125,-71.3125
1541874460570935,-81.0625,4.25,-72.4375
1541874460593932,-70.5,-2.1875,-72.4375
1541874460616966,-62.0625,-7.875,-72.5625
1541874460637982,-56.75,-13.9375,-71.375
1541874460653989,-47.1875,-19.8125,-67.875
1541874460677017,-32.875,-24.5,-61.5625
1541874460698027,-23.25,-28.125,-52
1541874460714045,-17.25,-29.1875,-40.25
1541874460736045,-15.25,-27.375,-29.625
1541874460758062,-18.75,-26.0625,-18.625
1541874460774089,-24.4375,-24.8125,-9.75
1541874460796148,-29.0625,-22.375,-3.25
1541874460817129,-26.8125,-19.9375,2.25
1541874460834141,-25.875,-19.1875,8.125
1541874460856157,-24.875,-18.5,13.1875
1541874460877174,-30.0625,-15.25,18.875
1541874460894187,-34.9375,-9,25.875
1541874460917197,-15.5,-4.8125,35.4375
1541874460937256,4.125,-4.9375,45.75
1541874460954236,15.1875,-1,58.6875
1541874460976247,14.75,8.875,72.3125
1541874460997251,5.5,19.625,85.4375
1541874461014298,-4.625,26.4375,97.75
1541874461036281,-5.4375,28.8125,107.313
1541874461057315,1.875,31.1875,113.813
1541874461074328,3.5,35.5625,118.375
1541874461096328,-2,43.375,122.063
1541874461117346,-15.25,50.6875,125.563
1541874461134411,-23.25,56.375,125.375
1541874461156374,-30.4375,56.875,122.25
1541874461177410,-30.875,53.25,114.375
1541874461193421,-21.4375,46.8125,101.125
1541874461216421,-12.625,42,86.1875
1541874461237457,-9.625,39.75,72.0625
1541874461253469,-12.25,38.1875,57.5
1541874461276483,-19.5625,35.875,43.75
1541874461297504,-25.125,32.4375,29.1875
1541874461313517,-27.75,26.4375,13.125
1541874461336515,-26.4375,19.4375,-3.75
1541874461357551,-24,14.4375,-20.8125
1541874461373558,-16,9.625,-37.8125
1541874461396563,-10.5625,9.5625,-51.6875
1541874461418599,-13.375,6.125,-62.5
1541874461433606,-25.625,3,-72.625
1541874461456611,-36,4.3125,-86
1541874461478636,-37.75,6.9375,-100
1541874461499662,-35,7.5,-109.813
1541874461516676,-31.4375,4.0625,-115.063
1541874461538693,-28,3,-115.813
1541874461560725,-20.3125,5,-113.625
1541874461576719,-27.625,7.5625,-110.625
1541874461598735,-49.1875,10.5625,-106.375
1541874461619792,-72.625,14.125,-99.75
1541874461636751,-85.8125,17.1875,-90.4375
1541874461659796,-83.6875,18.3125,-81.375
1541874461679803,-72.5625,18.0625,-71.5
1541874461696817,-65.75,16.875,-61.1875
1541874461720836,-68.875,15.6875,-53.75
1541874461739851,-75.75,16.0625,-47.8125
1541874461756865,-71.0625,14.125,-43.9375
1541874461778879,-66.0625,13.25,-42.9375
1541874461807905,-64.9375,13.9375,-42.4375
1541874461816932,-59.125,14,-44.3125
1541874461838912,-64.3125,12.875,-47.5
1541874461859945,-65.6875,9.75,-51.75
1541874461876954,-58.8125,4.875,-54.875
1541874461898959,-48.125,0.1875,-58.5625
1541874461919992,-32.5625,-4.125,-60.1875
1541874461936987,-21.4375,-8,-58.6875
1541874461959004,-17.625,-10.375,-54.4375
1541874461980020,-16,-11.8125,-50
1541874461997056,-14.8125,-12.9375,-44.625
1541874462019051,-11.8125,-13.6875,-39.0625
1541874462040068,-7.5625,-12.625,-32.6875
1541874462057095,-8.125,-10.8125,-25.875
1541874462079109,-14.875,-10.5,-18.9375
1541874462100134,-19,-11.4375,-11.9375
1541874462116147,-18.75,-11.9375,-4.8125
1541874462139164,-11,-13.25,1.9375
1541874462160182,-0.5625,-14.125,9.0625
1541874462176175,19.8125,-12.125,16.4375
1541874462199193,42.375,-10.25,26.25
1541874462220226,48.625,-8.4375,37.375
1541874462236243,40.25,-3.3125,48.5625
1541874462259240,30.1875,3,57.9375
1541874462280257,23.0625,7.6875,66.125
1541874462296269,18.0625,11.25,71.375
1541874462319287,16.9375,13.5,74.875
1541874462341304,18.375,14.0625,78.75
1541874462356316,17.5,15,81.8125
1541874462379390,13.75,14.3125,83
1541874462401352,6.6875,13.8125,84.625
1541874462416364,3.0625,10.8125,88.6875
1541874462439415,11.5,14.4375,92.3125
1541874462461401,11.8125,19.3125,92.0625
1541874462482415,-2.5,20.5625,89.875
1541874462499429,-15.8125,16.3125,85.0625
1541874462521445,-13.1875,9.5,77.1875
1541874462542462,-1.375,3.6875,67.125
1541874462559476,4.25,-0.4375,54.5
1541874462581508,3.6875,-3.125,40.3125
1541874462602529,1,-4.5625,23.5
1541874462619543,-3.0625,-6.375,4.4375
1541874462641540,-2.1875,-6.9375,-14.4375
1541874462662556,-2.25,-4.1875,-32.3125
1541874462679570,-10.75,-3.875,-47.25
1541874462701588,-18.375,-6.6875,-58.875
1541874462724606,-8.0625,-12.5625,-65.9375
1541874462739646,16.875,-15.625,-66.75
1541874462761635,35.3125,-16.8125,-65.5625
1541874462782651,31.4375,-14,-62.9375
1541874462799666,12.5,-6.125,-60.8125
1541874462821681,-6.8125,1.5625,-58.3125
1541874462842698,-29.25,6.25,-56.3125
1541874462858711,-48.25,9.6875,-53.25
1541874462881729,-53.875,13.5625,-49
1541874462902745,-49.0625,17.25,-43.5625
1541874462918758,-47.25,19.4375,-38.625
1541874462941791,-51.5625,20.5625,-35.625
1541874462962812,-53.9375,21.9375,-35.125
1541874462978816,-50.5,21.125,-36.6875
1541874463001823,-45,19.1875,-38.8125
1541874463022895,-37.0625,18.375,-41.8125
1541874463038853,-36.0625,18.4375,-45.4375
1541874463061871,-36.25,17.8125,-47.4375
1541874463082905,-39.875,15.5,-50
1541874463098919,-38.625,12.125,-53.5625
1541874463121936,-29.9375,8.3125,-56.375
1541874463142953,-20.625,4.875,-58.4375
1541874463158965,-13.75,1.0625,-58.5
1541874463165956,-10.625,-2.375,-54.9375
1541874463186983,-10.1875,-4.9375,-48
1541874463210006,-3.9375,-6.875,-40.5
1541874463226001,3.3125,-8.4375,-34.4375
1541874463255022,12.6875,-8.875,-28.75
1541874463270034,16.5625,-8.125,-22.4375
1541874463286064,13.125,-7.125,-16.6875
1541874463307082,5.9375,-7.6875,-12.0625
1541874463330100,6.9375,-10.5625,-8.9375
1541874463345093,16.625,-14.875,-4.9375
1541874463367130,24.6875,-16.875,0
1541874463389146,26.625,-16.8125,5.75
1541874463404158,22.0625,-14.5,12.625
1541874463427213,25.75,-8.8125,20.9375
1541874463449194,37.6875,-6.625,30.8125
1541874463464205,45.375,-7.375,41
1541874463487259,46.875,-5.6875,50.0625
1541874463509241,44.875,-1.5,57.1875
1541874463526254,41,2.375,63
1541874463550273,34.875,7.1875,69.875
1541874463569288,28.8125,10.875,78.125
1541874463584300,25.1875,11.4375,87.875
1541874463607318,23.9375,10.875,97.625
1541874463629336,21,11.0625,104.313
1541874463644346,18.5625,12.3125,109.563
1541874463667362,17.0625,15.1875,113.5
1541874463689363,14.3125,16.3125,116.188
1541874463704390,12.1875,14.9375,116.063
1541874463727393,11.75,11.625,113.875
1541874463751433,13.6875,8,108.75
1541874463764438,17.25,4.9375,101.25
1541874463787460,20.25,2,93.625
1541874463809460,20.25,-2.375,85.25
1541874463824469,17.75,-4,76
1541874463847542,14.5625,-6.5,64.4375
1541874463869507,12.625,-10.75,52.4375
1541874463884571,12.625,-12.375,37.8125
1541874463910576,14,-12.75,23.3125
1541874463929572,12.0625,-13.9375,8
1541874463946584,4.5,-14.75,-9.25
1541874463967595,-4.8125,-15.1875,-29.5
1541874463984615,-8.8125,-13.0625,-47.6875
1541874464006613,-11.5625,-10.0625,-61.75
1541874464026682,-17.875,-7.625,-72.625
1541874464044644,-23.8125,-4.75,-82.4375
1541874464065661,-28.125,-0.8125,-91
1541874464086678,-27.8125,1.0625,-96.375
1541874464104704,-33.125,-0.125,-98.8125
1541874464125757,-40.125,-1.5625,-98.75
1541874464146737,-41.75,-2.1875,-97
1541874464164736,-36.6875,-2,-93.9375
1541874464185780,-31.8125,-0.5625,-88.625
1541874464206789,-34.5,1.6875,-82.25
1541874464224784,-43.6875,5.4375,-74.875
1541874464247821,-51.4375,9.625,-67.375
1541874464266837,-54.0625,12.4375,-60.3125
1541874464284833,-53.625,12.875,-53.5625
1541874464307864,-50.4375,12.5,-47.75
1541874464326885,-45.8125,11.75,-42.3125
1541874464344877,-42.9375,10.8125,-38.1875
1541874464367911,-39.6875,9.8125,-35.1875
1541874464386966,-39.875,7.75,-32.4375
1541874464404925,-35.3125,5.4375,-30.4375
1541874464427963,-29.0625,2.75,-27.1875
1541874464446977,-19.1875,-1.125,-23.4375
1541874464464973,-10.9375,-6.125,-19.25
1541874464487992,-2.75,-9.0625,-16.0625
1541874464507024,6.4375,-10.9375,-11.625
1541874464525031,13.8125,-11.75,-5.875
1541874464548055,19.5625,-12.375,-0.5
1541874464567072,25.875,-13,3.8125
1541874464585086,27.375,-13.75,8.125
1541874464607103,24.125,-13.9375,12.25
1541874464629103,22.3125,-14.375,17.1875
1541874464644113,28.3125,-17.375,23
1541874464667150,40.3125,-23.3125,28.25
1541874464688151,56.9375,-27.125,34
1541874464704161,68.1875,-26.6875,40.625
1541874464727199,70.4375,-22.625,48.9375
1541874464748214,61.125,-18.25,56.125
1541874464764208,43.9375,-14.5,60.4375
1541874464787226,26.4375,-11.625,62.625
1541874464808297,15.6875,-8.25,63.625
1541874464824255,19.4375,0,63.8125
1541874464847284,28.9375,5.25,67.9375
1541874464875351,22.1875,3.6875,71.8125
1541874464884321,9.0625,0.125,72.625
1541874464907320,4.75,-2.0625,70.125
1541874464929338,15.4375,-1.25,66.3125
1541874464951374,25.8125,0.625,63.6875
1541874464966386,26.625,-0.375,59.3125
1541874464987402,19.625,-1.5625,52.875
1541874465004404,15.875,-2.5,45.25
1541874465026416,16.25,-2.25,38.5
1541874465047485,15.5625,-0.75,31.5
1541874465070451,13.375,4.0625,25.625
1541874465086492,17.3125,5.6875,23.625
1541874465107477,14.375,4.6875,25.6875
1541874465123490,7.1875,2.25,27.625
1541874465146516,11.9375,2.375,29.3125
1541874465167543,25.3125,1.875,30.6875
1541874465183536,36.25,1.5625,31.625
1541874465206568,30.4375,1.6875,30.4375
1541874465229592,27.625,2.6875,27.4375
1541874465251607,31,2.25,23.625
1541874465266602,27.5625,5.6875,18.375
1541874465296627,11.125,16.25,11.0625
1541874465303642,-7.5,24.9375,3.8125
1541874465326651,-31.875,27.75,-6.1875
1541874465349722,-39.625,26.625,-15.875
1541874465370684,-39.3125,25.125,-25.625
1541874465386699,-46.125,24.4375,-38.875
1541874465416721,-49.8125,24.8125,-55.9375
1541874465447747,-55.625,22,-66.8125
1541874465460811,-59.5625,19.5,-68.3125
1541874465468814,-60.25,20,-65.1875
1541874465490797,-58.625,18.625,-55.1875
1541874465506845,-53.0625,13.9375,-45.8125
1541874465529824,-44.6875,9.875,-43.75
1541874465557850,-35.9375,8.9375,-48.5625
1541874465566858,-34.4375,8.9375,-56.8125
1541874465589864,-48.9375,12,-63
1541874465611884,-66.3125,14.3125,-68.6875
1541874465633910,-82.25,13.625,-71.8125
1541874465656927,-87.8125,12.75,-73.9375
1541874465669938,-83.875,12,-75.9375
1541874465686951,-75.4375,10.375,-76.8125
1541874465709005,-69.75,7.1875,-78.4375
1541874465731978,-69.9375,4.6875,-80.4375
1541874465747000,-72.9375,2.875,-82.4375
1541874465769013,-79.6875,1.5,-84.5
1541874465790033,-84.5625,-0.875,-84.5
1541874465807048,-82.0625,-2.875,-85.9375
1541874465829073,-72.625,-3.3125,-82.875
1541874465850079,-69.375,-4.9375,-79.75
1541874465867093,-61.125,-5.1875,-72.0625
1541874465889107,-54.375,-9.125,-64.5625
1541874465910127,-42.4375,-14.375,-55.1875
1541874465926121,-23.5625,-19.8125,-43.375
1541874465949144,-5.125,-23.1875,-33.375
1541874465970174,14.6875,-25.0625,-22.0625
1541874465986169,25.6875,-26.9375,-10.6875
1541874466009187,24.0625,-23.375,-1.0625
1541874466030221,20.5625,-14.5,10.25
1541874466046220,13.1875,-6.3125,26.4375
1541874466069232,9.375,-1.0625,46.6875
1541874466092306,19.9375,2.6875,68.0625
1541874466106272,38.6875,7.5625,91.0625
1541874466129295,47.3125,13.125,112.688
1541874466152317,41.1875,19.375,129.563
1541874466166328,35.8125,24.5,138.5
1541874466189337,41.1875,27.8125,139.563
1541874466219357,49.375,30.9375,137.938
1541874466226375,48.4375,33.75,135.75
1541874466249375,38.75,36.3125,133.188
1541874466272406,27.125,37.5,130.375
1541874466293409,20.4375,36.5,125.5
1541874466309421,22.1875,34.75,116.375
1541874466331458,30.625,33.875,103.438
1541874466353466,35.1875,35.375,87.75
1541874466369488,33.5,36.1875,70.5
1541874466392487,28.5,34.1875,52.9375
1541874466412558,18.5,31.625,35.1875
1541874466429537,8.875,32.5,17.6875
1541874466451555,11.4375,34.5625,1.1875
1541874466480575,13.0625,37.25,-11.6875
1541874466489583,-7.3125,35.5,-21.5
1541874466511594,-21.25,30.3125,-32.5625
1541874466532651,-28.6875,21.5,-44.25
1541874466549630,-22.9375,13.875,-56.625
1541874466571649,-16.9375,8.125,-68.9375
1541874466600669,-23.4375,2,-83.25
1541874466609656,-36,-5.125,-100.313
1541874466631686,-45.5625,-12.125,-119.313
1541874466652710,-49.1875,-17.5,-132.063
1541874466669723,-55.0625,-18.75,-130.75
1541874466691723,-65.1875,-17.4375,-119.75
1541874466714746,-67.9375,-17.0625,-103.75
1541874466736761,-54.75,-18.125,-90.625
1541874466759790,-41.875,-16.6875,-84.625
1541874466772840,-45.8125,-12.1875,-83.125
1541874466789853,-62.3125,-9.5625,-83.5
1541874466811826,-89.625,-6.875,-87.3125
1541874466834845,-107.688,-5.1875,-92.125
1541874466849866,-115,-2.6875,-95.375
1541874466871873,-114.25,-1.5625,-97.5
1541874466892899,-112.563,-3.125,-97.625
1541874466908912,-105.188,-7.25,-97.125
1541874466931920,-100.5,-11.1875,-96.6875
1541874466954942,-91.4375,-13.75,-95.1875
1541874466976964,-82.0625,-15.5,-91.375
1541874466991977,-71.75,-16.75,-85
1541874467012994,-63.875,-18.3125,-77.625
1541874467029005,-58.625,-17.75,-67.9375
1541874467052014,-52.1875,-16.25,-56.375
1541874467074044,-46.625,-16.125,-43.4375
1541874467097059,-39.4375,-15.5625,-30.5
1541874467119074,-25.375,-14.625,-17.5
1541874467142095,-5.125,-14.375,-3.9375
1541874467164111,20.25,-16.0625,12.25
1541874467172117,45.25,-19.25,31.625
1541874467194132,65.8125,-13.75,51.8125
1541874467209147,81.125,-2.25,71.9375
1541874467232165,85.875,8.8125,97
1541874467254171,83,19.625,124.813
1541874467275195,80.5,31,150.813
1541874467298217,79.5,40.875,170.5
1541874467314211,77.875,48.3125,182.188
1541874467335246,76.6875,55.0625,183
1541874467352260,71.4375,64.6875,176.5
1541874467374258,58.5625,74.5625,168.875
1541874467395294,36.6875,82.5625,164.625
1541874467412307,12,88.3125,162.313
1541874467435307,-5.6875,91.9375,159.75
1541874467455341,-13.625,95.625,154.625
1541874467472353,-21.5,92.1875,148.188
1541874467494351,-19.75,87.75,140.25
1541874467515388,-8.875,79.9375,129.938
1541874467532382,1.25,72.75,116.625
1541874467562424,4.9375,65.625,101.063
1541874467592448,4.75,58.6875,84.3125
1541874467595445,-0.375,49.75,66.5
1541874467598449,-6.3125,39,44.625
1541874467619470,-6.5625,26.6875,16.4375
1541874467642488,-1.375,14.625,-15
1541874467657500,2,5.5625,-45.5
1541874467679519,-10.5,-1.1875,-71.125
1541874467702535,-38.9375,-9.125,-94.1875
1541874467720548,-71.0625,-18.875,-121.25
1541874467739598,-82.75,-25.125,-153.375
1541874467771625,-68.3125,-31.625,-176
1541874467777593,-58.5625,-38.125,-180.75
1541874467799611,-65.6875,-44.0625,-182.125
1541874467822629,-80,-43.125,-184.125
1541874467837641,-86.8125,-35.5,-188
1541874467859642,-87.375,-27.75,-191.25
1541874467883668,-89.1875,-23.125,-193.813
1541874467897688,-93.5,-20.0625,-196.25
1541874467919705,-101.125,-15.4375,-198.125
1541874467942719,-109.938,-9.375,-197.938
1541874467960737,-118,-0.9375,-196.063
1541874467982736,-120.25,6.375,-191.125
1541874468002766,-113.813,12.125,-181.75
1541874468017783,-111.688,19.0625,-167.563
1541874468039801,-114.313,25.0625,-151
1541874468062817,-119.125,27.875,-131.688
1541874468077830,-113.625,29.25,-112.188
1541874468099847,-97.25,28,-92.5625
1541874468122865,-70,23,-72.125
1541874468144882,-43.5625,15.75,-50.9375
1541874468159895,-23.0625,8.0625,-30.9375
1541874468177909,-9.0625,1.5625,-12.3125
1541874468196923,-4.5625,-2.875,5.875
1541874468219941,-4.0625,-7.125,23.1875
1541874468237956,-0.375,-13.9375,39.8125
1541874468257968,4.875,-18.5,58.0625
1541874468279989,2.6875,-17.25,78.1875
1541874468298005,2.25,-17.5625,103.5
1541874468325007,12.5625,-21.1875,131
1541874468340071,32.3125,-24.375,155.625
1541874468358050,63.8125,-28.5625,180.25
1541874468380055,101.25,-27.8125,201.688
1541874468403080,129.125,-23.3125,214.125
1541874468418114,131.688,-16.3125,219.938
1541874468437112,117.188,-9,222.563
1541874468460130,101.188,1,225.125
1541874468478136,87.0625,11.8125,227.313
1541874468497159,72.4375,24.5625,228.813
1541874468520177,56.875,33.1875,228.313
1541874468538191,48.125,40.1875,221.875
1541874468557241,45.0625,43.75,211.438
1541874468580260,45.6875,44.875,197.25
1541874468598238,50.875,45.625,178.375
1541874468617253,50.9375,45.0625,157
1541874468647312,43.8125,43.9375,130.875
1541874468658286,33.25,41.375,99.6875
1541874468679303,20.125,35.1875,66.3125
1541874468700319,9.125,27.9375,31.3125
1541874468718332,2.125,20.625,-5.375
1541874468740341,-5.9375,14.125,-37.0625
1541874468784421,-25.5,6.75,-66
1541874468787387,-54.375,-5.0625,-102.25
1541874468808389,-64.75,-12.375,-142.063
1541874468827419,-53.8125,-19.25,-167.813
1541874468837426,-53.75,-22.5,-178.75
1541874468859424,-69,-25.4375,-180.875
1541874468880444,-90.75,-30.625,-188.125
1541874468898456,-101.188,-27.9375,-200.75
1541874468918491,-95.3125,-19.8125,-212.25
1541874468939508,-93.125,-16.6875,-220
1541874468957521,-108.688,-17.6875,-225.188
1541874468980539,-133,-17.75,-227.125
1541874468999550,-158.25,-14.1875,-227.063
1541874469017567,-170.5,-9,-226.125
1541874469040586,-168.563,-5.25,-223.063
1541874469060602,-158.5,-3.4375,-217.125
1541874469077607,-150.938,-2.625,-209
1541874469099622,-151.313,-2.1875,-195.313
1541874469120684,-152.313,-0.6875,-176.625
1541874469136661,-145.25,-2.375,-155.063
1541874469159696,-127.938,-7.125,-134.063
1541874469180697,-101,-12.1875,-113.313
1541874469196689,-76.9375,-16.5625,-93.375
1541874469219708,-54.1875,-21.8125,-74.9375
1541874469240742,-28.8125,-28.3125,-55.9375
1541874469256757,-3.8125,-32.6875,-37.9375
1541874469279757,22.8125,-37.25,-20.25
1541874469300791,48.4375,-42.75,-0.4375
1541874469316797,81,-45.1875,24.3125
1541874469339838,107.25,-41.375,57.75
1541874469360837,110.188,-31.8125,93.0625
1541874469376853,98,-15.3125,128.625
1541874469399863,88.625,3.1875,163.125
1541874469420920,82.4375,19.25,192.313
1541874469436878,78.375,28.875,212.375
1541874469459915,81.375,34.9375,222.75
1541874469480932,78,44.875,226.125
1541874469496926,67.6875,58.8125,225
1541874469519980,51.625,65.4375,221.625
1541874469540979,37.8125,64.8125,223.688
1541874469556971,26.75,63.625,227.188
1541874469580012,16.9375,63.875,225.563
1541874469601026,11,60.375,217.75
1541874469617029,9.875,52.3125,206.188
1541874469640057,19.1875,37.6875,191.438
1541874469661073,38.0625,23.1875,172.5
1541874469676081,57,12.875,159.125
1541874469700103,57.3125,6.125,144.938
1541874469721120,40.6875,1.125,131.625
1541874469736130,17.8125,-3.6875,117.938
1541874469760132,0.9375,-7.375,103.813
1541874469781189,-14.75,-12.625,86.75
1541874469805198,-27,-14.625,72
1541874469819197,-25,-16.9375,62.8125
1541874469841196,-18.6875,-17.5,50.1875
1541874469856208,-10.875,-16.9375,37.75
1541874469879245,-8.4375,-20.8125,27.875
1541874469909268,-20.8125,-26.875,11.875
1541874469916266,-28,-17.4375,-14.0625
1541874469939291,-18.5,-9,-20.25
1541874469962309,-22,-14.5,-8.8125
1541874469984353,-27.5,-18.875,1.4375
1541874470007327,-14.0625,-16.875,7.75
1541874470022356,6.75,-12.625,12.625
1541874470043374,4.3125,-10.4375,17.5
1541874470067392,-4.375,-7.9375,20.5625
1541874470082392,1.0625,-3.75,22.125
1541874470103420,5.875,0.75,25.1875
1541874470119414,1.125,2.25,27.25
1541874470142467,-5.0625,0.125,25.625
1541874470163468,-7.1875,-2.375,23.5625
1541874470179469,-11.75,-4.8125,21.9375
1541874470202498,-6,-8.25,20.5625
1541874470223551,-6.1875,-13.375,17.5
1541874470241528,-8.375,-17.1875,15.125
1541874470262542,-7.25,-24,13.6875
1541874470283598,-7.6875,-28.375,13.625
1541874470299555,-4.9375,-32.1875,13.25
1541874470322592,-1.75,-32.9375,14.6875
1541874470343609,-3.875,-35.25,16.25
1541874470360624,-1.9375,-33.25,14.25
1541874470382637,-7.375,-29.5,9.625
1541874470403656,-12.625,-31.1875,6.9375
1541874470419650,-14.4375,-31.25,3.3125
1541874470442697,-20.5625,-34.25,-1.5625
1541874470463696,-33.1875,-34.375,-13.8125
1541874470479715,-14.5625,-36,-16.9375
1541874470501733,-10.75,-45.75,-7.8125
1541874470524733,-3.6875,-49,-2.625
1541874470539763,11,-45.125,-0.875
1541874470563778,10.625,-35.0625,-3.8125
1541874470582833,6.75,-24.25,-8.5
1541874470599828,4.375,-18.9375,-12.9375
1541874470621827,4.0625,-19.6875,-14.6875
1541874470642880,6.625,-23.375,-12
1541874470658839,8.5,-27.625,-6.4375
1541874470681867,13.6875,-29.875,-2.3125
1541874470702877,15.0625,-28.75,1.5625
1541874470718884,13.8125,-26.875,3.625
1541874470741922,13.6875,-24.375,5.5
1541874470762938,16.75,-20.25,6.375
1541874470778932,21.5625,-16.125,8
1541874470801951,22.4375,-14.5,8.25
1541874470822987,23.3125,-13.1875,7.0625
1541874470838993,24.875,-10.625,5.1875
1541874470862003,23.375,-10.3125,2.25
1541874470885035,18.25,-9.3125,-1.25
1541874470899045,14.3125,-10.4375,-3.1875
1541874470922045,12.6875,-12.5,-4.8125
1541874470945081,13.4375,-15.375,-7.1875
1541874470959074,10.6875,-15.6875,-8.25
1541874470982091,8.125,-16.125,-12.3125
1541874471005146,-5.875,-17,-21.4375
1541874471026145,-4.75,-13.75,-34.125
1541874471042139,6.3125,-19,-32.6875
1541874471065176,11.8125,-27.3125,-21.25
1541874471086193,19.9375,-28.8125,-9.6875
1541874471102197,17.9375,-25.1875,-4.0625
1541874471125219,12.8125,-22,-2.8125
1541874471146239,13.4375,-24.0625,-1.625
1541874471162234,13.6875,-28.6875,-1.8125
1541874471185251,13.9375,-32.3125,-0.625
1541874471206269,11.9375,-32.9375,1.25
1541874471222300,12.5625,-33.5625,4.1875
1541874471244317,14,-36.9375,6.6875
1541874471266331,16.5625,-41.3125,8.875
1541874471282347,20,-46.25,10.8125
1541874471304410,21.0625,-48.9375,10.375
1541874471325381,20.875,-49.9375,8.8125
1541874471342394,20.75,-51.125,5.9375
1541874471364418,16.75,-51.625,5
1541874471385408,21.5625,-52.875,5.1875
1541874471402430,19.9375,-53.75,5.3125
1541874471424451,21.0625,-54.125,5
1541874471445477,23.375,-55.4375,6.5
1541874471462491,19.8125,-56.5,6.75
1541874471484487,19.625,-54.1875,6.75
1541874471505522,19.5,-53.5,7.3125
1541874471522535,15,-52.4375,7.625
1541874471544540,14.25,-50.625,6.9375
1541874471565570,12.375,-48.375,5.9375
1541874471581573,11.0625,-45.3125,4.25
1541874471604590,13.375,-39.5625,2.5
1541874471625617,18.3125,-31.9375,2.875
1541874471641610,16.75,-24.0625,4.375
1541874471664627,6.125,-19.25,6.25
1541874471685663,0.9375,-17.1875,5.6875
1541874471701675,2.125,-17.375,0.625
1541874471724674,6.1875,-11.8125,-7.0625
1541874471745711,17.875,-8.75,-13.4375
1541874471761719,20.5,-8.25,-18.1875
1541874471784723,24.875,-4.9375,-20.0625
1541874471807755,31.375,2.25,-25.8125
1541874471821770,28,8.1875,-30.6875
1541874471844784,19.125,13.6875,-35.9375
1541874471867798,5.4375,18.8125,-43.625
1541874471881817,-4.25,26.3125,-54.375
1541874471904835,-6.375,32.75,-65.375
1541874471926853,-4.125,36.0625,-76.5625
1541874471949871,-4.9375,37.75,-86.0625
1541874471964882,-8.5625,38.4375,-96.1875
1541874471986936,-13.625,40.25,-106.875
1541874472007916,-17.25,44.9375,-116.563
1541874472024929,-18.9375,50.0625,-121.875
1541874472046947,-27.25,53.25,-126.063
1541874472052953,-42.625,55.875,-129.063
1541874472074970,-60.1875,57.25,-132.188
1541874472089982,-75.75,59.4375,-136.625
1541874472112999,-87.1875,62,-137.5
1541874472131013,-94.375,62.0625,-136
1541874472161037,-94.8125,60.0625,-130.188
1541874472173045,-89.9375,57.3125,-124.125
1541874472191060,-81.75,55.25,-117.688
1541874472210075,-76.125,53.1875,-111.125
1541874472233094,-75.8125,49.5625,-105.813
1541874472251103,-75.875,46,-101.125
1541874472270122,-74.5,42,-96
1541874472293145,-71.75,37.8125,-91.5625
1541874472311136,-65.375,34,-85.5625
1541874472330170,-57.4375,30,-79.8125
1541874472353184,-50.1875,26.25,-72.25
1541874472369200,-43.6875,22.0625,-64.3125
1541874472390217,-38,17.75,-56.8125
1541874472415237,-35.75,14.625,-50.25
1541874472429247,-36.0625,12.5,-44.8125
1541874472450245,-35.75,10.25,-40
1541874472472282,-34,8,-38.0625
1541874472489294,-26.875,6.3125,-37.25
1541874472511306,-21.75,4.125,-37
1541874472532329,-19.25,2.75,-35.4375
1541874472549337,-17.3125,1.5,-33.125
1541874472570359,-16.8125,0.8125,-28.8125
1541874472592412,-15.0625,0.5,-24.0625
1541874472609406,-13.5625,0.375,-19.6875
1541874472630405,-11,0.75,-16.0625
1541874472652422,-8.875,1.4375,-12.25
1541874472669440,-8.1875,2.375,-8.6875
1541874472690454,-7.875,3.625,-4.5
1541874472712470,-8.8125,4.3125,-0.9375
1541874472731485,-9.25,4.5625,0.75
1541874472750501,-7,4.875,1.8125
1541874472780524,-3.5,4.6875,2.5625
1541874472790511,-2.4375,4.75,3.375
1541874472810542,-2.875,5,4.0625
1541874472832565,-2.0625,5.3125,4.875
1541874472850560,-2.375,5.5625,4.8125
1541874472870594,-2.75,5.8125,4.5
1541874472892647,-2.5,5.625,4.25
1541874472918632,-1.625,5.1875,4.1875
1541874472930641,-0.625,4.125,4.1875
1541874472952660,1.4375,2.6875,3.6875
1541874472970655,3.625,2,2.6875
1541874472990688,5.0625,0.875,1.875
1541874473008685,4.4375,-0.25,1.4375
1541874473030702,3.625,-0.625,1.1875
1541874473050737,5.125,-0.9375,0.9375
1541874473067749,5.875,-0.875,1.25
1541874473090766,3.375,-0.75,1.1875
1541874473110774,-2.0625,-0.5,0.625
1541874473127797,-4.5,0.25,0.625
1541874473150814,-4.625,1.375,1.5
1541874473169829,-7.125,2.1875,2.8125
1541874473195850,-8.5625,3.8125,4.6875
1541874473210862,-10.875,5.625,7.375
1541874473229875,-15.5,8.3125,9.625
1541874473252895,-21,11.25,10.75
1541874473270910,-25.375,13.875,10.5625
1541874473291926,-28.9375,15.125,11.1875
1541874473319950,-29.875,15.75,11.6875
1541874473330959,-27.75,16.3125,12.125
1541874473351972,-28.125,16.8125,12.875
1541874473372988,-28.6875,17.125,13.8125
1541874473397999,-26.9375,16.875,15.75
1541874473412019,-22.25,15.1875,17.3125
1541874473433036,-16.8125,14.4375,18.5
1541874473451050,-17.6875,14.6875,20.125
1541874473472067,-24.6875,15.0625,22
1541874473493083,-29.0625,14.875,22.3125
1541874473510097,-31.75,14.4375,22.625
1541874473531114,-34.875,14.5625,22.875
1541874473553130,-37.75,13.25,23.8125
1541874473577130,-37.9375,11.5625,25.125
1541874473598166,-36,10.25,26.5
1541874473607169,-34.9375,9.25,27.1875
1541874473630190,-31.5625,9.5,27.375
1541874473651208,-31.6875,9.6875,27.375
1541874473667220,-35.5625,9.375,26.5625
1541874473690238,-40.375,9.625,25.5625
1541874473712235,-45.5,10.0625,24.3125
1541874473727257,-45.75,10.5,22.6875
1541874473750286,-41.375,9.8125,21.75
1541874473772282,-35.3125,7.625,21.8125
1541874473786314,-31.625,5.1875,21.9375
1541874473810367,-19.125,2.5625,19.5625
1541874473832330,-18.1875,1,19.6875
1541874473853367,-11.5625,0.3125,18.5
1541874473870380,-7.1875,1,15.1875
1541874473892377,-5.375,4.3125,11.9375
1541874473913415,-7,5.5625,7.0625
1541874473930429,-12.9375,8.75,1.8125
1541874473952444,-7.25,10.1875,2.375
1541874473966451,-8.9375,11.6875,0.5625
1541874473990464,4.3125,12.875,2.0625
1541874474012491,8,13.75,-1.625
1541874474026499,-8.4375,15.4375,-4.9375
1541874474049520,-31.5625,12.3125,-4.375
1541874474072538,-43.5,25.875,-5.5625
1541874474093556,-22.25,21.125,-6.75
1541874474109564,-22.6875,21.3125,-4.625
1541874474132585,-27.0625,19.875,-3.4375
1541874474153638,-30.875,23.3125,-3.3125
1541874474169608,-32.75,26.125,-4.375
1541874474192633,-37,25.5625,-2.5625
1541874474213644,-38.3125,24.0625,0.9375
1541874474229646,-34.25,20.375,3.4375
1541874474252680,-27.5625,19.625,7.875
1541874474280702,-21.5625,19.4375,12.5
1541874474289690,-22.375,20,17.1875
1541874474312728,-22.5625,18.9375,21.5
1541874474333744,-19.375,18.5625,22.9375
1541874474349746,-22.5625,18.375,23.25
1541874474372774,-30.1875,18.25,22.0625
1541874474393826,-31.1875,17.25,20.875
1541874474409786,-27.8125,14.6875,16.875
1541874474432823,-23.75,12.125,12.3125
1541874474453838,-18.375,11.3125,13
1541874474468850,-14.875,11.1875,12.375
1541874474492869,-19,12.5,12.8125
1541874474513885,-18.1875,10.8125,12.0625
1541874474529878,-16.875,7.875,11.8125
1541874474559901,-29.4375,7.3125,11.125
1541874474573972,-56.5,11.6875,10.0625
1541874474588945,-52.9375,9.375,5.8125
1541874474612962,-24.1875,2.75,1.1875
1541874474634972,-16.0625,-2.0625,-4.125
1541874474657989,-26.625,-8.6875,-10.4375
1541874474672009,-40.3125,-13.625,-8.8125
1541874474695027,-43.625,-12.625,-6.75
1541874474709043,-33.6875,-11.125,-9.9375
1541874474732056,-18.25,-12.125,-14.5625
1541874474755074,-13.375,-13.75,-16.5625
1541874474776126,-4.25,-15.125,-17.3125
1541874474792104,16,-18.375,-15.9375
1541874474815122,40.375,-19,-19.875
1541874474836137,46.25,-20,-16.9375
1541874474852151,43.625,-14.8125,-21.125
1541874474875168,35.75,-10.1875,-19.9375
1541874474896221,35,-7.6875,-23.9375
1541874474912194,43.8125,-9,-27.25
1541874474935199,53.125,-9.0625,-31.0625
1541874474956232,57.125,-5.125,-35.25
1541874474972227,46.6875,-1.25,-38.5
1541874474995263,38.3125,-1.0625,-40.875
1541874475016316,40.3125,-0.9375,-49.75
1541874475032275,46.875,-5.1875,-58.625
1541874475055310,55.6875,-8.75,-61.9375
1541874475076327,58.9375,-7.375,-62.125
1541874475092331,51.3125,-3.625,-58.9375
1541874475115357,43.125,0.8125,-52.75
1541874475136374,35.9375,3.625,-42.1875
1541874475152378,32.125,5.8125,-26.75
1541874475175404,21.5625,7.375,-8.375
1541874475196422,7.5625,8.4375,8.4375
1541874475212415,-5.25,8.4375,22.5625
1541874475235451,-16.375,6.9375,32.75
1541874475256468,-21.25,4.5,38.9375
1541874475272465,-17.125,1.125,43.4375
1541874475295499,-12,-0.25,45.4375
1541874475316515,-16.4375,-0.625,44.125
1541874475331520,-27.5,-1.8125,39.4375
1541874475355538,-28.125,-4.9375,34.4375
1541874475376554,-13.625,-8.75,28.0625
1541874475391556,3.375,-16.25,21.125
1541874475414592,10.125,-22,16.0625
1541874475436602,5.1875,-27.5,12.0625
1541874475451602,-2.9375,-35.5,13.1875
1541874475474675,5.1875,-43.3125,18.25
1541874475496653,21.625,-50.6875,25.625
1541874475511650,31,-53.4375,36
1541874475534681,20.1875,-54.375,46.375
1541874475555703,15.375,-54,57.4375
1541874475571697,21.8125,-53.125,65.6875
1541874475594725,24.9375,-53.6875,72.9375
1541874475617752,25.4375,-55.8125,80.3125
1541874475632764,23.0625,-57.875,86.5625
1541874475654762,17.6875,-55.75,92.5625
1541874475677798,11.5625,-54.0625,93.625
1541874475698799,8.25,-53.0625,93
1541874475714825,6.6875,-57,88.125
1541874475737843,9.6875,-61.5625,84.75
1541874475765871,13.1875,-63.1875,81.9375
1541874475774868,16.6875,-59.5,80.625
1541874475797894,17.0625,-55.1875,81.9375
1541874475818891,14.6875,-52.875,83.25
1541874475834903,6.6875,-50.375,88.125
1541874475857936,8.125,-46.125,95.8125
1541874475878958,-5.75,-45.375,105.688
1541874475894952,-6.75,-41.875,119.313
1541874475917987,-3.125,-41.125,132.875
1541874475939005,-3.625,-41.9375,144.438
1541874475954998,-5.1875,-44,152.438
1541874475978032,-8,-41.875,154.813
1541874475999051,-3.5625,-38.9375,154.813
1541874476015055,-0.375,-36.5,154.563
1541874476038076,-2.25,-36.1875,153.875
1541874476059082,-2.8125,-35.0625,152.625
1541874476075093,-0.5625,-34.3125,148.938
1541874476098114,6.5625,-37.1875,143.75
1541874476119126,10.3125,-38.375,138.188
1541874476135140,3.125,-37.375,132.875
1541874476157171,-2.375,-34.125,131.188
1541874476179190,4.875,-26.125,124.438
1541874476195200,8.25,-25.375,120.563
1541874476217219,4.125,-28.4375,122.25
1541874476238240,-0.375,-28.4375,123.5
1541874476255252,-6.8125,-28.9375,120.688
1541874476277280,-10.625,-28.375,116.25
1541874476298286,-5.625,-28.8125,117.25
1541874476314279,0.1875,-27.8125,118.063
1541874476337298,-2.25,-25.5,121.813
1541874476358334,-7.4375,-20.875,126.375
1541874476374327,-15.5,-15.375,131
1541874476397362,-10.875,-15.125,133.188
1541874476418417,-3.4375,-12,126.75
1541874476434375,-5.4375,-16.4375,120.5
1541874476457394,-8.1875,-20.125,113.563
1541874476478419,-1.375,-17.4375,103.438
1541874476494433,11.875,-11.3125,87.0625
1541874476517449,19.875,-8.5625,76.375
1541874476523463,14.625,-3.25,65.25
1541874476545464,12.6875,3.75,50.8125
1541874476562486,20.75,5.9375,41.5
1541874476583502,25.25,8.3125,29.4375
1541874476605528,13.125,5.625,18.1875
1541874476621540,12.125,1.8125,15.5625
1541874476642557,16.3125,0.4375,12.625
1541874476665576,8.875,-0.375,8.3125
1541874476682573,2.3125,-1.875,8.875
1541874476702604,2.0625,-2.3125,14.25
1541874476725622,2.5,-2.0625,18.375
1541874476741637,1,-0.4375,16.9375
1541874476762647,-0.625,-0.3125,16.875
1541874476794676,2.3125,0.875,16.0625
1541874476800682,4.75,1.375,13.3125
1541874476822699,9.3125,3.5625,7.25
1541874476845717,15.75,6.375,-1.0625
1541874476867769,25.0625,9.5,-10.6875
1541874476882729,29.625,12.3125,-23
1541874476905799,35.8125,16.5,-39.5625
1541874476921765,31.5,18.125,-55.875
1541874476945775,32.375,20.6875,-66.8125
1541874476965810,35.8125,23.75,-73.625
1541874476980818,32.5625,26.9375,-87.875
1541874477002835,24.625,24.25,-100.438
1541874477025841,23.1875,18.3125,-102.813
1541874477040859,18,12.625,-97.75
1541874477062888,11.4375,15.25,-103.375
1541874477085909,-8.9375,8.0625,-113.688
1541874477101911,-18.9375,7.9375,-123.813
1541874477122933,-10.1875,9.625,-136.875
1541874477145952,6.3125,7.8125,-145.75
1541874477161956,13.625,6.8125,-148.875
1541874477182981,13.625,13.3125,-157.125
1541874477205995,7.5625,4.25,-166.813
1541874477221993,6.625,-2.6875,-161.625
1541874477243064,11.9375,6.4375,-163.25
1541874477266038,16.9375,10.8125,-167.688
1541874477282041,17.125,-2.4375,-168.313
1541874477303076,13,-7.0625,-162.625
1541874477334100,6.9375,-2.3125,-157.313
1541874477342102,15.5625,3.25,-156.5
1541874477363119,29.75,-0.625,-156.813
1541874477386138,27.5,-14.75,-152.688
1541874477402155,19.125,-5.625,-142.75
1541874477423170,20.5,4.0625,-132.313
1541874477445184,14.625,-0.625,-134.438
1541874477462201,5.25,-10.5625,-131.875
1541874477483218,-0.875,-10.375,-132.625
1541874477505215,4.8125,-7.625,-128.938
1541874477523246,11.9375,-5.5,-123.813
1541874477543264,2.875,-11.875,-121
1541874477561259,-2.625,-10.5,-117.438
1541874477583293,-4.375,-5.5625,-113.875
1541874477603312,-9.9375,-0.1875,-111
1541874477621326,-15.9375,2.3125,-108.75
1541874477645325,-14.75,2.6875,-107.5
1541874477663339,-4.125,1.75,-104.125
1541874477688361,0.6875,2.4375,-100.063
1541874477703371,-1.9375,4.25,-92.8125
1541874477723441,4.6875,5.375,-88.8125
1541874477741420,16.375,3.4375,-84.25
1541874477764433,24.3125,0.5625,-79
1541874477783457,17.75,1.3125,-74.8125
1541874477801463,-2.75,4.6875,-69.6875
1541874477823465,-17.5625,9.25,-67.1875
1541874477850502,-12,10.875,-65.5625
1541874477861508,1.5625,11.0625,-63.875
1541874477883513,6.875,10.4375,-61.5
1541874477912574,2.625,11.9375,-58.4375
1541874477921547,-2.4375,12.875,-55.375
1541874477943579,-3.875,10.5625,-48.5625
1541874477963594,0.5,8.25,-40.9375
1541874477979591,6.5625,5.875,-32.9375
1541874478002605,13.5,2.6875,-25.875
1541874478023637,11.5,-3.0625,-18.25
1541874478040637,2.5,-6.9375,-7.75
1541874478062654,0.125,-12,3.8125
1541874478083688,10.4375,-15.375,13.75
1541874478100699,20.3125,-21.625,23.375
1541874478122700,23.9375,-24.6875,32.4375
1541874478143736,23.625,-28.0625,42.875
1541874478159749,20.6875,-27.5625,52.8125
1541874478182748,18.3125,-26.875,61.8125
1541874478203819,16.5625,-27.375,67.4375
1541874478219796,17.5,-29.75,70.9375
1541874478242795,20.625,-30.3125,74.375
1541874478263827,21.5,-30.375,77.3125
1541874478279862,13.8125,-27.625,81.375
1541874478302863,3.125,-24.6875,85.6875
1541874478323877,-4.6875,-25.375,90.0625
1541874478339911,-7.5625,-28.5625,92.125
1541874478362889,-3.625,-28.1875,89
1541874478383905,-1.875,-26.9375,87.5
1541874478399972,-5.125,-26.5625,87.25
1541874478422938,-7.1875,-26.8125,88.875
1541874478444953,-7.4375,-28.25,93.5625
1541874478460019,-6.5625,-28.6875,98.9375
1541874478483003,-6.25,-28.3125,102.688
1541874478505017,-8.4375,-31.9375,106.063
1541874478520067,-6.125,-33.375,110
1541874478543049,-1.125,-32.75,110.375
1541874478565055,1.9375,-34.25,109.438
1541874478595072,3.1875,-35.5,110.813
1541874478603078,-0.5,-35.8125,110.938
1541874478625094,-10.125,-31.4375,102.563
1541874478646131,-14.75,-31.875,103.438
1541874478670130,-15.0625,-32.75,110.625
1541874478693151,-17.5,-34.4375,112.688
1541874478707213,-11.8125,-36.75,114.375
1541874478724173,-10.875,-38.875,119.375
1541874478745199,-14.5,-40.875,123.25
1541874478768226,-15.5625,-38.1875,126.875
1541874478783238,-14.875,-33.75,125.188
1541874478805237,-11.625,-30.9375,121.75
1541874478826256,-10.125,-29.8125,122.375
1541874478843280,-15,-25,116.813
1541874478865285,-18.8125,-26.4375,111.625
1541874478886319,-13.9375,-26.9375,107
1541874478902369,-11.5,-26.625,104.438
1541874478925351,-13.3125,-27.6875,102.313
1541874478946369,-12.9375,-27,98.1875
1541874478962381,-13.3125,-21.8125,89.5625
1541874478985378,-11.875,-22.4375,82.25
1541874479006394,-10.625,-23.875,75.8125
1541874479022407,-17,-25.0625,67.4375
1541874479045444,-20.375,-24.4375,58.625
1541874479073466,-17.75,-22.6875,52.6875
1541874479082474,-15.5625,-20.0625,45.375
1541874479105478,-15.4375,-18.125,40.875
1541874479126509,-12.625,-16.25,36.8125
1541874479150526,-11.125,-14.5625,37.4375
1541874479165538,-11.3125,-9.75,33.5
1541874479186556,-10.5625,-5.25,30.0625
1541874479202563,-6.8125,-0.4375,23.9375
1541874479225585,-2.5,3.5625,17.3125
1541874479247584,1.25,6.8125,12.25
1541874479262596,1.4375,11.0625,5.25
1541874479285625,4.6875,12.875,2.375
1541874479306630,8.4375,14.75,-1.25
1541874479321644,11.4375,16.125,-4.6875
1541874479352668,12.375,16.625,-7.125
1541874479367680,12.875,17.3125,-10.0625
1541874479388714,13.25,17.6875,-11.875
1541874479405728,14.1875,16.5,-13.0625
1541874479427725,16.4375,14.375,-14.5
1541874479448756,17.9375,10.9375,-15.625
1541874479465813,16.6875,8.0625,-16.75
1541874479487772,14.25,3.1875,-15.125
1541874479516851,11.0625,-0.125,-14.3125
1541874479525845,7.3125,-2.4375,-14.125
1541874479547821,5,-3.5625,-13.75
1541874479577843,3.875,-4.1875,-13.125
1541874479585866,4.8125,-6.0625,-11.4375
1541874479607877,3.0625,-7.625,-10.375
1541874479621878,4.75,-8.75,-10
1541874479644915,7.25,-10.375,-10.1875
1541874479667934,8.4375,-11.0625,-11
1541874479688985,13,-9.4375,-13.375
1541874479704962,21.625,-7.625,-14.8125
1541874479727963,26.375,-3.9375,-18.5
1541874479748997,25,0.1875,-20.875
1541874479765006,27.125,4.75,-22.1875
1541874479788027,26.625,8.9375,-23.9375
1541874479809045,25.75,14.125,-26.5625
1541874479825038,20.75,19.5,-31.75
1541874479855064,13,22.3125,-40.8125
1541874479869087,9.4375,16.9375,-43.8125
1541874479885101,1.25,5.6875,-39
1541874479908157,1.25,-2.25,-32.875
1541874479930120,5.4375,-7.125,-29.375
1541874479953193,3.25,-11.375,-23.5
1541874479968150,-2.25,-13.9375,-18.6875
1541874479989221,-5.875,-15.5,-14.4375
1541874480006180,-6.4375,-16.625,-10.5625
1541874480028252,-7.5625,-17.9375,-7.125
1541874480049232,-4.125,-18.375,-6
1541874480065226,1.5,-19.25,-5.75
1541874480088299,0.75,-19.8125,-5.4375
1541874480109261,3.3125,-19.125,-7.875
1541874480125276,7.75,-18.5,-10.8125
1541874480148294,7.4375,-18.5,-12.1875
1541874480169366,5,-18,-13.625
1541874480184370,2.75,-16.75,-13.625
1541874480208360,0.75,-15.1875,-14.5
1541874480229373,-1.5625,-13.125,-15.3125
1541874480244366,-2,-10.875,-17.3125
1541874480268401,-6.6875,-8.5,-17.4375
1541874480290404,-10.9375,-5.875,-18.3125
1541874480304414,-11.375,-4.1875,-17.5
1541874480327432,-14.125,-3.375,-18.625
1541874480350465,-19.0625,-2.8125,-21.625
1541874480364461,-20.0625,-2.5625,-26.5625
1541874480387479,-24.1875,-5.125,-26.5
1541874480410497,-28.4375,-6.5,-26.25
1541874480424509,-25.0625,-4.8125,-28.3125
1541874480447580,-19.625,-1.625,-30.5625
1541874480470560,-19.125,-1.125,-27.4375
1541874480491616,-26.875,-0.8125,-23.3125
1541874480507602,-31.0625,2.8125,-20.4375
1541874480537597,-25.625,7.625,-18.4375
1541874480551663,-18.75,11.125,-14.5
1541874480567621,-19.8125,13.875,-8.5625
1541874480590677,-16.9375,18.1875,-6.8125
1541874480611710,-13.875,22.875,-4.875
1541874480627668,-8.4375,29.25,-7
1541874480650725,-7.375,38,-13.4375
1541874480671721,-7.125,43.5625,-14.5625
1541874480687714,-3.5625,48.5625,-15.75
1541874480710733,-9.875,51.6875,-17.4375
1541874480731769,-8.5625,54.5625,-16.9375
1541874480747761,-4.1875,52.875,-10.1875
1541874480770800,0.125,47.6875,-1.9375
1541874480791817,2.4375,41.625,7.6875
1541874480807810,-1.9375,30.1875,17.5
1541874480830849,-8.8125,20.6875,20.25
1541874480851863,3.0625,17.125,15.8125
1541874480867857,23,15.9375,5
1541874480890927,34.6875,14.9375,-9.875
1541874480911909,32.625,14.5625,-22.5
1541874480927905,30.75,16.9375,-29.625
1541874480950932,32.5,18.9375,-30.75
1541874480971958,39.5625,17.3125,-26.4375
1541874480977962,39,14.625,-18.9375
1541874480993010,31,13,-11.875
1541874481015992,24.5,12.625,1.375
1541874481038046,20.4375,13.25,11.625
1541874481053021,22.25,13.5625,18.875
1541874481076039,26.5,12.0625,27.0625
1541874481098058,27,11,30
1541874481113104,21.75,9,31
1541874481136069,17.5,8.625,30.625
1541874481158084,19.8125,8.9375,27.125
1541874481173152,27.4375,8.5625,20.8125
1541874481196170,34.1875,6.5625,14.5
1541874481218187,34.3125,3.6875,10
1541874481235164,28.3125,1,9.0625
1541874481256181,24.375,2.1875,9.5625
1541874481278198,30.3125,6.1875,10.4375
1541874481293210,37.0625,8.8125,12.1875
1541874481316264,36.8125,10.125,14.375
1541874481338245,30.5625,10.125,14.1875
1541874481353258,18.0625,10.875,13.8125
1541874481376256,9.3125,12.5625,11.75
1541874481398273,8.375,13.4375,8.125
1541874481413340,4.75,11.75,1.625
1541874481436303,2.625,9.0625,-6.0625
1541874481454334,-1.8125,4.25,-14.375
1541874481473392,-11.875,-2.0625,-25.125
1541874481496350,-21.25,-5.25,-35.4375
1541874481518381,-19.5625,-4.4375,-41.8125
1541874481533382,-16.1875,-3.4375,-45.0625
1541874481555396,-17.4375,-5.3125,-45.375
1541874481578429,-20.6875,-7.3125,-43.4375
1541874481593446,-14.125,-8.8125,-40.5
1541874481615464,-13.9375,-14.3125,-32.75
1541874481638481,-10.75,-20.3125,-24.125
1541874481653493,-6.4375,-23.5625,-12.875
1541874481675494,-3.375,-27.25,-0.375
1541874481693504,3.5625,-29.5,10.75
1541874481713540,11.4375,-30.3125,21.9375
1541874481735558,13.625,-28.5625,30.5
1541874481753553,11.5625,-24.75,35.8125
1541874481773588,5.3125,-21.125,36.6875
1541874481795585,0.8125,-18.1875,34.25
1541874481813599,-0.5,-17.1875,31
1541874481833615,-1.375,-17.875,26.375
1541874481855632,-1.375,-20.3125,20.25
1541874481873648,-0.5,-23,17.9375
1541874481894663,-0.5,-24.25,14.625
1541874481915734,-0.875,-26.125,12.3125
1541874481933694,-2,-26.9375,10.625
1541874481954725,-1.125,-25.3125,10.3125
1541874481975746,-1.75,-23.1875,11.0625
1541874481993741,-2.3125,-20.6875,12.0625
1541874482016813,-4.8125,-19.1875,12.125
1541874482035777,-2.9375,-18.0625,12.6875
1541874482053788,-0.625,-17.375,10.5
1541874482074805,2.5,-15.25,7.9375
1541874482095821,4.75,-12.875,6.9375
1541874482113835,3.4375,-9.625,4
1541874482134851,4.75,-4.9375,-2.4375
1541874482155871,16.4375,-0.9375,-8.5
1541874482173897,30.0625,-1.4375,-6.4375
1541874482195900,31.4375,-4.0625,-3.3125
1541874482215934,29.6875,-2.5625,-2.75
1541874482233948,35.0625,1.25,1.0625
1541874482256009,35.875,4.3125,4.4375
1541874482276017,33.1875,7.375,5.75
1541874482293991,32.8125,9.6875,6.75
1541874482315994,33.4375,10.25,7.375
1541874482336009,34.3125,9.1875,4.0625
1541874482354024,32.25,7.1875,1.3125
1541874482376040,27.6875,5.5625,-0.5625
1541874482396057,25.8125,4.0625,-2.3125
1541874482414086,28.8125,2.4375,-3.4375
1541874482435107,28.875,0.125,-5.1875
1541874482456104,22.5625,-2.5625,-7.25
1541874482473118,15.125,-5.1875,-11.3125
1541874482496136,12.5625,-6.125,-12.6875
1541874482516171,6.8125,-7.0625,-13.0625
1541874482533185,3.125,-8.3125,-13.4375
1541874482555182,5.875,-9.625,-14.8125
1541874482570194,3,-11.25,-14.8125
1541874482593212,-5.5,-12.8125,-15.75
1541874482615229,-11.5,-14.625,-16.375
1541874482636249,-12.8125,-14.75,-17.3125
1541874482653261,-14.875,-15.8125,-20
1541874482675277,-15.875,-17.375,-21.375
1541874482704299,-20.9375,-19.4375,-21.1875
1541874482713306,-24.125,-20.5625,-20.75
1541874482735323,-23.1875,-20.625,-20
1541874482756340,-23.5,-21.125,-19.125
1541874482772353,-25.75,-21.6875,-17.75
1541874482795372,-26.875,-22.125,-18.75
1541874482816443,-23,-22.5,-20.3125
1541874482833401,-20.25,-22.9375,-23.875
1541874482855418,-19.4375,-23.375,-27.4375
1541874482876434,-24.3125,-22.75,-31.625
1541874482893448,-25.8125,-20.375,-38.5625
1541874482915465,-19.5625,-15.75,-48.125
1541874482936481,-18.0625,-11.0625,-57.5625
1541874482952530,-31.9375,-7.5625,-68.9375
1541874482975512,-46.5,-5.25,-80.6875
1541874482996528,-46.375,-4.1875,-89.5625
1541874483012556,-37.25,-3.3125,-101.375
1541874483035559,-27.25,-2.1875,-111.313
1541874483056631,-23,-2.1875,-121.188
1541874483072608,-22.6875,-8.0625,-128.125
1541874483095606,-21.375,-12,-133.25
1541874483116623,-15,-16.375,-132.563
1541874483132650,-6,-19.9375,-128.125
1541874483155654,0.75,-18.75,-119.5
1541874483177671,11.1875,-14.0625,-113.625
1541874483192737,20.3125,-11.3125,-112.813
1541874483215716,25.375,-14.9375,-115
1541874483237728,31.6875,-22.1875,-119.625
1541874483252785,47.3125,-22.0625,-124.313
1541874483275768,61.75,-18.9375,-126
1541874483297800,63,-13.6875,-123.875
1541874483318802,46.9375,-6.875,-120.313
1541874483335795,21.5625,1.0625,-116.375
1541874483357829,-8.25,7.1875,-112.688
1541874483378843,-29.1875,13.125,-109.5
1541874483395881,-43.5625,18.3125,-105.688
1541874483417860,-52.4375,22,-101.438
1541874483438931,-49.125,21.5,-95.8125
1541874483455909,-37.4375,18.8125,-89.0625
1541874483477917,-23.375,16.3125,-78.625
1541874483498943,-18.875,13.875,-65.3125
1541874483515937,-23.875,14,-52.3125
1541874483537954,-31.875,14.0625,-40.25
1541874483558970,-31.5,14.375,-30
1541874483575984,-23.6875,14.5,-20.875
1541874483598001,-13.375,13.3125,-12.875
1541874483619017,-6,11.9375,-4.6875
1541874483636051,-6,10.5,3.375
1541874483658049,-7.8125,8.5625,8.625
1541874483679084,-4.9375,8.0625,11.9375
1541874483696099,-7.625,9.0625,14.3125
1541874483718096,-12.3125,10.5625,16.6875
1541874483739166,-13.5625,10,19.5
1541874483756143,-11.25,10.125,19
1541874483778162,-9.375,11.5625,15.875
1541874483799208,-7.25,13.0625,11.6875
1541874483815227,-8.625,14.4375,7.25
1541874483838205,-13.4375,15.9375,4
1541874483859206,-19.6875,16.8125,1.25
1541874483875218,-25.5,18.0625,-0.9375
1541874483898237,-29.0625,18.6875,-1.9375
1541874483919256,-27.6875,17.6875,-2.375
1541874483935287,-27.125,17,-3
1541874483958304,-25.875,15.0625,-3.25
1541874483979356,-25.625,12.8125,-4.375
1541874483995332,-22.8125,11,-6.625
1541874484018350,-17.625,9.75,-9.25
1541874484039402,-14.125,9.5625,-13.3125
1541874484055381,-14.4375,10.1875,-17.6875
1541874484078398,-19.5625,11.5,-21.5
1541874484100397,-25.5625,12.1875,-24.1875
1541874484115426,-31.6875,13.3125,-25.625
1541874484138446,-36.125,14.375,-26.0625
1541874484160453,-37.75,14.875,-24.75
1541874484175470,-35.9375,14.9375,-22.75
1541874484198527,-33.5625,15.125,-20.3125
1541874484220489,-31.5625,14.3125,-17.1875
1541874484241521,-25.3125,12.875,-13.625
1541874484258575,-17.3125,10.4375,-10.625
1541874484280552,-11.5,9,-6.3125
1541874484301573,-11.25,9.125,-2.0625
1541874484318579,-18.3125,11.125,1.1875
1541874484340583,-23.0625,12.125,4.0625
1541874484362621,-24.6875,11.5625,7.6875
1541874484378630,-26.375,12.0625,12.4375
1541874484400637,-29.625,11.5,18.6875
1541874484421667,-36.25,7.1875,25.8125
1541874484438675,-41.75,7.8125,37.5625
1541874484460698,-43.625,8.375,48.3125
1541874484481715,-45.4375,9.625,59.625
1541874484498729,-44.4375,9.875,68.375
1541874484520745,-41.875,9.8125,76
1541874484541761,-37.25,9.75,83
1541874484557774,-32.625,12.125,88.875
1541874484580793,-29.9375,13.8125,95.8125
1541874484601809,-28.875,16.25,103.938
1541874484617820,-25.8125,20.5625,107.25
1541874484640839,-24.125,22.3125,110.625
1541874484661856,-22.0625,24.1875,115.938
1541874484677859,-20.125,23.6875,118.563
1541874484700887,-15.625,24.5625,120.125
1541874484721883,-12.9375,26.5,119.125
1541874484737896,-10.5625,26.3125,118.375
1541874484760950,-8.8125,27.625,118
1541874484781950,-7.625,26.75,117.313
1541874484797949,-6.125,24.4375,116.625
1541874484820980,-3.875,24.0625,116.875
1541874484841998,0.125,22.5,118.688
1541874484858005,0.75,22.125,117.063
1541874484881023,2.375,19.5625,115.875
1541874484903025,0.5625,13.8125,115.75
1541874484917037,0.875,11.5625,115.563
1541874484941110,4.8125,10.5625,112.688
1541874484962091,4.3125,4.625,109.438
1541874484977087,1.3125,1.5,106.125
1541874485001103,0.125,-1.625,102.688
1541874485022119,-0.6875,-4.875,98.875
1541874485037131,-0.875,-5.375,94.9375
1541874485061170,1.0625,-8.0625,91.625
1541874485083168,2.4375,-11.1875,87.625
1541874485097231,0.3125,-13,86.4375
1541874485121239,-3,-14.75,84.0625
1541874485143225,-2.875,-17.25,82.75
1541874485157225,-2.125,-18,79.375
1541874485181278,-3.4375,-16.9375,70.6875
1541874485203262,-6.25,-19.8125,66.375
1541874485224281,-7.75,-23,63.0625
1541874485240345,-11.25,-25.875,57.3125
1541874485263309,-16.375,-31.4375,53.9375
1541874485284345,-17.375,-35.125,47.625
1541874485300338,-20.625,-40.4375,39.9375
1541874485323393,6,-47.625,27.25
1541874485344372,3.25,-59.875,24.0625
1541874485360430,-26.8125,-71.8125,15.4375
1541874485383422,-41.0625,-80.3125,1.875
1541874485404439,-40.375,-86,-15.5
1541874485420433,-24.0625,-81.375,-24.8125
1541874485426437,-1.8125,-70.625,-22.875
1541874485448455,-0.25,-61.8125,-17.375
1541874485471492,-14.375,-55.125,-12.125
1541874485486540,-15.9375,-46.5,-7.75
1541874485508501,-12.8125,-40,-5.125
1541874485531575,-16,-35.4375,-1.75
1541874485546534,-18,-29.625,2
1541874485568604,-16,-24.8125,4.375
1541874485591620,-13.875,-21.8125,8.0625
1541874485606581,-12.375,-22.1875,12.125
1541874485628596,-8.6875,-23.0625,15.0625
1541874485651625,-3.5,-23.375,17.0625
1541874485666627,-2.6875,-23.5,18.5
1541874485688698,-2.4375,-23.6875,19.1875
1541874485706676,-2.625,-21.8125,19.1875
1541874485726681,-3.625,-20.625,20.6875
1541874485748710,-6.0625,-19.125,21.4375
1541874485766705,-12,-18.25,23.3125
1541874485785774,-13.625,-18.625,24.625
1541874485808738,-14.25,-17.5625,24.25
1541874485826754,-13.125,-16.8125,22.0625
1541874485845805,-12.375,-16.3125,21.375
1541874485868787,-12.125,-14.9375,18.3125
1541874485886819,-8.625,-13.25,12.9375
1541874485905816,-5.125,-12.25,5.125
1541874485928851,-4.3125,-13.1875,-0.8125
1541874485944845,-2.625,-15.5,-6.125
1541874485973886,0.875,-16.6875,-12.25
1541874485991901,1.4375,-16.4375,-19.75
1541874486006893,0.9375,-17.25,-23.3125
1541874486025960,-1.5625,-18.875,-25.0625
1541874486048926,-3.9375,-19.875,-27.1875
1541874486066940,-2.9375,-18.1875,-29.1875
1541874486086010,-3.6875,-17.1875,-28.4375
1541874486108992,-4.625,-15.75,-25.375
1541874486127006,-5.125,-14.6875,-20.25
1541874486146022,-8.0625,-12.9375,-16.0625
1541874486169039,-8.5,-11.375,-13.5625
1541874486187054,-7.3125,-10.625,-13.8125
1541874486206069,-7.5,-10.875,-12.1875
1541874486229078,-6.75,-10.8125,-9.125
1541874486247096,-7.1875,-8.5625,-7.125
1541874486266151,-8.625,-5.625,-5.3125
1541874486289134,-8.1875,-2.75,-3.3125
1541874486307141,-6.5625,0.375,0.125
1541874486326158,-4.0625,4.8125,2.25
1541874486348174,-2.625,6.625,5.875
1541874486366194,-2.25,6.1875,9.375
1541874486386211,-1.0625,4.3125,9.25
1541874486409210,5.625,4.375,5.0625
1541874486426282,11.1875,2.5,3.875
1541874486446238,18.5625,-0.6875,7.8125
1541874486468313,16.125,-5.25,14.1875
1541874486486300,14.75,-7.375,20.875
1541874486506288,15.5625,-5.875,25.8125
1541874486528313,13.625,-2.1875,30.25
1541874486546317,9.3125,1.0625,34.25
1541874486566387,4.4375,4,34
1541874486588404,0.25,5.75,33.1875
1541874486606364,-0.25,7.5625,29.25
1541874486629418,-3.75,6.5,23.75
1541874486648417,-7.9375,2.6875,19.0625
1541874486666411,-11.4375,-4.3125,15.6875
1541874486687439,-11.1875,-10.375,13.25
1541874486708464,-9.25,-14.6875,11.625
1541874486726458,-10.6875,-16.8125,11.3125
1541874486747490,-15.3125,-17.5625,12.5625
1541874486768547,-18.8125,-16.375,14.0625
1541874486786506,-20.9375,-13.625,14.1875
1541874486807524,-26.9375,-10.5,14.625
1541874486828593,-34.3125,-8.6875,14.75
1541874486846563,-36.1875,-6.5625,13
1541874486867570,-37.8125,-6.4375,11.5625
1541874486889589,-39.3125,-7.375,10.75
1541874486905616,-41.25,-6.6875,10.8125
1541874486926634,-40.6875,-4.3125,12.1875
1541874486949688,-43.3125,-1.875,14.75
1541874486965647,-47.25,-0.5625,18.6875
1541874486988684,-49.1875,1.6875,18.875
1541874487009683,-44.875,4.3125,16.75
1541874487025693,-38.25,5.75,11.5625
1541874487048768,-33.6875,2,6.4375
1541874487062723,-33.0625,-1.5,-0.3125
1541874487085740,-27.875,-3.6875,-7.0625
1541874487108778,-41.5625,-10.875,-12.25
1541874487129788,0.5625,-5.75,-19.625
1541874487145788,14.75,-0.4375,-27
1541874487168827,-2.75,1.8125,-34.3125
1541874487189826,-12.1875,3,-31.8125
1541874487213856,-25.5,5.3125,-32
1541874487228853,0.6875,6.5625,-36.375
1541874487249870,9.5,9.625,-40.5625
1541874487265882,-1.0625,9.625,-48.0625
1541874487287899,3.625,5,-51.125
1541874487308915,5.1875,3.0625,-42.625
1541874487325929,8.5625,17.4375,-55.1875
1541874487347949,11.5625,21.9375,-61.9375
1541874487369975,15.5,22.9375,-72.375
1541874487385988,8.75,24.9375,-78.75
1541874487408047,-2.375,21.3125,-82.375
1541874487429065,1.25,26.5625,-86.5
1541874487446023,10.0625,28.3125,-92.625
1541874487468041,17.3125,30.0625,-96.4375
1541874487489112,16.5,28.4375,-95.4375
1541874487506073,8.875,28.375,-95.1875
1541874487528105,7.1875,29.8125,-95.1875
1541874487549104,12.875,30.6875,-94.0625
1541874487566117,12.3125,27.75,-89.5
1541874487588134,18.5,25.8125,-83.5625
1541874487609206,22.125,23.9375,-75.3125
1541874487626185,19.8125,27.25,-68.125
1541874487648188,24.8125,27.5625,-65.3125
1541874487669254,30.5625,25.5,-61.375
1541874487685221,28.375,24.875,-61.3125
1541874487708231,26.5625,23,-61.375
1541874487729249,26.4375,21.6875,-65.375
1541874487745260,29.1875,20.1875,-72.5
1541874487768277,34.1875,15.1875,-76.5625
1541874487789307,26.5625,6.6875,-79.5625
1541874487805306,22.375,1.375,-80.125
1541874487828324,32.25,-3.125,-77.75
1541874487849356,41.875,-9.625,-73.6875
1541874487865354,41.0625,-15.4375,-66.5
1541874487888381,34.75,-16.9375,-55.5
1541874487911409,24.5,-17.0625,-46.625
1541874487925400,18.5625,-18.4375,-39.1875
1541874487948432,20.9375,-7.5625,-29.1875
1541874487971453,5.3125,22.875,0.5
1541874487992456,-25.1875,17.5,21
1541874488008467,-59.375,9.875,16.4375
1541874488030485,-34.9375,6.125,0.25
1541874488051499,19.4375,5.75,-8.5625
1541874488068513,14.8125,7.8125,-12.375
1541874488090529,-29.375,17.5625,-8.875
1541874488111546,-52.875,22,3.25
1541874488128560,-60.5,15.875,8.125
1541874488150577,-58.5,9.875,3.1875
1541874488171593,-38.75,10.0625,-4.125
1541874488188609,-21.1875,11.3125,-7.0625
1541874488210640,-23.125,11.25,-6.6875
1541874488231660,-30.875,8.875,-6.375
1541874488248673,-27.5625,7.6875,-6.875
1541874488270671,-18.9375,7.5,-6.3125
1541874488291743,-15.6875,8,-5.6875
1541874488308721,-15.25,7.5625,-3.5625
1541874488330726,-15.125,6.875,-1.375
1541874488351735,-14.3125,6.125,0.875
1541874488368803,-11.75,5.1875,2.75
1541874488390768,-9.875,5.125,5.375
1541874488411782,-9.6875,5.0625,7.875
1541874488428849,-7.6875,4.75,11.1875
1541874488450813,-4.4375,4.25,13.75
1541874488471829,-4.875,3.875,15.5
1541874488488857,-7.9375,5.625,14.5625
1541874488510860,-8.875,8.125,12.125
1541874488531895,-9,11.5,9.4375
1541874488548909,-6.125,14.1875,6.375
1541874488570917,-3.375,15.1875,4.0625
1541874488591978,-0.3125,16.375,1.75
1541874488608962,-1.5,16.5,-0.5
1541874488630955,-3.4375,15.8125,-2.0625
1541874488652027,-5.375,14.8125,-0.6875
1541874488668984,-3.3125,12.625,3.75
1541874488691002,0.375,7.1875,6.875
1541874488712018,6.625,1.375,11.125
1541874488728085,12.875,-1,14.4375
1541874488751064,4.5,3.625,14.75
1541874488772084,-15.625,7.375,19.5625
1541874488788115,-27.8125,6.75,27.375
1541874488811096,-17.1875,5.875,30.0625
1541874488833113,-0.8125,5.875,26.6875
1541874488848125,5.9375,2.375,29.25
1541874488871143,-2.9375,-2.25,34.6875
1541874488893176,-7.375,-2.875,40.625
1541874488908192,0.0625,-2.625,43.625
1541874488931194,6.5625,-2.625,45.5625
1541874488953224,5.8125,-2.75,48.875
1541874488974281,3.5,-1.625,53.3125
1541874488991256,4.125,0.125,54.3125
1541874489013271,2.25,0.3125,55.4375
1541874489034289,0.5625,1.375,56.8125
1541874489051294,-0.375,2,56.9375
1541874489073305,-2.75,1.3125,56.9375
1541874489094338,-6.5625,1.6875,59.4375
1541874489111333,-10.1875,2.5625,62.5625
1541874489133349,-10,1.125,62
1541874489154421,-7.3125,-0.125,64.9375
1541874489171433,-7.75,-2,67.125
1541874489193411,-3.5,-2.1875,69.75
1541874489214432,-1.1875,-3.9375,74.625
1541874489231441,-0.75,-5.125,76.1875
1541874489253442,0.125,-6.0625,77.6875
1541874489274479,0.875,-8.25,81.6875
1541874489291483,-2.1875,-9.25,85.625
1541874489313501,-6.625,-10.5625,88.875
1541874489336538,-11.5,-11.875,94
1541874489350539,-12.5,-13.3125,93.875
1541874489373538,-6.9375,-14.875,95.4375
1541874489394609,-5.0625,-17.1875,97.9375
1541874489410586,-8.25,-18.5625,98.25
1541874489433604,-10.5625,-19.75,100.25
1541874489454621,-4.8125,-20.5,101.5
1541874489470616,-1.25,-19.5625,98.875
1541874489493646,-2.375,-20.9375,98.1875
1541874489514664,-0.8125,-20.9375,93.125
1541874489530671,-1.625,-23.125,87.1875
1541874489560684,-4.25,-26.3125,84.3125
1541874489574750,-8.75,-24,75.25
1541874489590730,-9.4375,-22.875,67.8125
1541874489620732,-6.5625,-23.5625,61.625
1541874489634761,-9.25,-25.75,54.875
1541874489650811,-15.3125,-30.3125,54.3125
1541874489673828,-17.6875,-32.4375,51.625
1541874489694809,-18.25,-33.375,46.4375
1541874489716810,-17.6875,-35.375,45.6875
1541874489733875,-22.25,-36.9375,43.125
1541874489754856,-25.6875,-40.0625,47.375
1541874489770864,-24.6875,-39,48.25
1541874489793887,-24.75,-38.375,47
1541874489815884,-26.375,-40.3125,47.75
1541874489830919,-25.9375,-39.875,44.6875
1541874489853934,-25.1875,-39.9375,40.1875
1541874489875933,-22.6875,-40.4375,39.1875
1541874489881936,-24.5625,-40.0625,37.9375
1541874489898970,-23.5,-36.625,34.0625
1541874489918985,-21.375,-33.125,29.0625
1541874489941002,-19.625,-31.6875,29.8125
1541874489958015,-23.25,-31,29.9375
1541874489979032,-23.8125,-29.125,29.375
1541874490002049,-18.5625,-27.0625,29.375
1541874490018063,-16.0625,-24.625,27.25
1541874490039079,-14.5625,-22.6875,24.875
1541874490061097,-12.6875,-21.1875,21.1875
1541874490078105,-13.5625,-19.5,16.125
1541874490099127,-12.9375,-18.3125,12.3125
1541874490121145,-14.375,-18.25,9.8125
1541874490138157,-15.875,-17.625,8.4375
1541874490159173,-18.1875,-16.9375,7.375
1541874490181191,-20,-17.0625,6.8125
1541874490198205,-21.6875,-17.875,6.875
1541874490219222,-22.9375,-18.8125,6.375
1541874490241239,-24,-18.9375,4.75
1541874490258251,-25.5,-18.5,1.5625
1541874490279269,-24.6875,-19.125,3.25
1541874490301266,-25.875,-18.8125,4.6875
1541874490318294,-25.125,-17.5625,6
1541874490339296,-23.625,-15.75,6.8125
1541874490361368,-22.0625,-13.5,8.6875
1541874490378346,-21.375,-12.0625,8.4375
1541874490399362,-16.875,-10.4375,9.0625
1541874490429387,-15.9375,-10.625,10.5
1541874490438393,-14.1875,-8.625,8.625
1541874490459409,-15.625,-9.125,6.5625
1541874490481410,-17.75,-9.9375,5.875
1541874490498466,-17.6875,-9.3125,1.375
1541874490519454,-15.625,-8.5625,1.5
1541874490541475,-14.25,-6.625,2.5625
1541874490558470,-13,-5,1.8125
1541874490579496,-11.625,-3.75,1.375
1541874490596517,-9.6875,-2.8125,2.1875
1541874490617569,-7.0625,-0.875,2.0625
1541874490638550,-4.5,1.3125,1.125
1541874490656556,-1.1875,2.625,0.3125
1541874490677571,-0.9375,3.375,0.3125
1541874490698598,-1.25,3.625,1.1875
1541874490716605,-0.1875,4.5,0.5
1541874490739629,0.375,4.5,-1.375
1541874490758644,1.1875,3.0625,-1
1541874490776641,2.1875,1.8125,1.25
1541874490799677,2.1875,1.5,2.6875
1541874490818692,1.8125,0.9375,4.1875
1541874490836688,1.5625,0.1875,4.75
1541874490859724,2.0625,-0.9375,4.625
1541874490878739,1.5,-2.0625,4.3125
1541874490896736,0.0625,-2.5625,2.5625
1541874490919770,-0.375,-3,1.625
1541874490938770,-0.0625,-4.4375,2.375
1541874490956782,-0.625,-6.125,4.3125
1541874490979802,-0.375,-5.6875,4.375
1541874490998833,-2,-5.0625,4.25
1541874491016829,-2.1875,-4.25,5.625
1541874491039866,-0.875,-2.375,4.75
1541874491058880,0.5,-0.3125,1.6875
1541874491076876,2.5625,1.625,-1.875
1541874491099897,4.3125,3.1875,-4.375
1541874491118963,4.625,4.9375,-6.125
1541874491136923,4.375,6.75,-7.4375
1541874491159941,4.6875,8,-7.875
1541874491179011,3.9375,8.3125,-8.4375
1541874491196970,4.375,8.5,-8.5
1541874491219993,3.75,7.625,-7.625
1541874491239004,3.875,6.1875,-5.9375
1541874491257032,3.0625,5.1875,-4.875
1541874491279053,3.625,4.875,-3.75
1541874491302069,4.6875,4.625,-3.3125
1541874491317080,6.9375,5.125,-4.5625
1541874491339101,9.3125,6.875,-9.8125
1541874491360117,13,9.875,-18.6875
1541874491382170,13.5625,14.8125,-33.6875
1541874491399129,12.75,16.5625,-40.6875
1541874491420145,10.25,17.75,-43.3125
1541874491435170,7.75,18.75,-44.1875
1541874491459194,6.375,20.375,-43.0625
1541874491480203,7.6875,22.1875,-43.25
1541874491495204,11.9375,23.1875,-43.625
1541874491526243,16.1875,22.8125,-43.1875
1541874491539257,22.3125,25.75,-50.5625
1541874491555254,22.5625,32.4375,-63.25
1541874491578284,30.4375,32.9375,-63.4375
1541874491600303,28.8125,34.0625,-68.1875
1541874491615315,21.3125,35.5625,-69.1875
1541874491646323,20.125,37.9375,-74.0625
1541874491659366,19,39.3125,-84.75
1541874491675347,13.9375,36.25,-85.875
1541874491698365,13.6875,35.125,-91.875
1541874491721382,16.4375,39.25,-97.25
1541874491735393,17.8125,42.9375,-108.563
1541874491758429,16.875,40.1875,-116.25
1541874491781449,15.125,27.9375,-119.375
1541874491802500,9.9375,25.125,-119.313
1541874491818475,5.0625,28.25,-123.25
1541874491841531,-4.125,31.875,-127.75
1541874491862512,-16,20.5,-125.313
1541874491878507,-10.375,19.625,-115.938
1541874491901543,-1.25,23.75,-112.313
1541874491922542,-5.3125,27.1875,-110.375
1541874491938554,-17.1875,23.1875,-105.625
1541874491961625,-11.875,17.625,-97.8125
1541874491982606,0.9375,16.3125,-95.125
1541874491998599,8.0625,18.5,-93.375
1541874492021673,27.9375,14.8125,-99.125
1541874492042689,24.875,6,-84.6875
1541874492058646,4.0625,8.125,-79.4375
1541874492081686,-1.5625,11.875,-71.9375
1541874492102681,5.6875,14.0625,-69.5625
1541874492118694,7.375,9.8125,-63.75
1541874492141712,-0.75,7.8125,-60.25
1541874492162744,-5,7.625,-56.4375
1541874492178760,0,7.8125,-55.6875
1541874492200773,5.9375,4.875,-54.125
1541874492222791,5.25,1.875,-52
1541874492238803,3.5,1.75,-50.875
1541874492260820,3.25,0.625,-50.375
1541874492281823,3,-1.9375,-50.75
1541874492298835,2.875,-3.9375,-48.0625
1541874492320907,1.375,-1.9375,-47.6875
1541874492341888,0.5,-1.1875,-48.1875
1541874492358902,0.8125,-0.3125,-51
1541874492380900,3.875,-0.625,-55.75
1541874492401970,11,1.9375,-61.125
1541874492417940,-1.8125,28.625,-31.75
1541874492440947,-12.5,23.5,13.5625
1541874492462019,-11.25,19.125,9.4375
1541874492477975,-7.6875,8,-12.75
1541874492500996,48.0625,6.125,-21.8125
1541874492522067,58.5,6,-13.3125
1541874492538023,7.0625,5.6875,-2.5625
1541874492561041,-22.6875,6.25,0.25
1541874492582077,-5.3125,5.5,-1.4375
1541874492598070,12.375,4.3125,0.1875
1541874492621088,4.5625,2.25,2.6875
1541874492644127,-12.4375,1.3125,5.0625
1541874492659135,-13.25,0.1875,4.5
1541874492681135,-2.125,0,3.5625
1541874492704175,4.25,0.0625,2.9375
1541874492719177,0.8125,-0.9375,2.25
1541874492741183,-4.625,-0.9375,2.25
1541874492764222,-3.25,-0.375,1.5
1541874492778232,-0.8125,0.125,1.25
1541874492801231,-1.875,0.125,1.4375
1541874492824249,-3.625,0,1.6875
1541874492838278,-3.6875,-0.0625,1.375
1541874492861296,-1.875,0.4375,0.75
1541874492884295,-0.8125,0.6875,0.5625
1541874492898325,-1.5,0.375,0.5
1541874492921344,-2.0625,0.125,0.25
1541874492943395,-0.5,0.25,0.375
1541874492958372,-0.0625,0.1875,0.5625
1541874492981372,0.375,0.3125,0.25
1541874493003404,0.875,0.375,0.3125
1541874493018437,0.3125,0.5,0.3125
1541874493041422,-0.4375,0.5625,0.25
1541874493063446,-0.0625,0.4375,0.25
1541874493078467,0.75,0.5,0.3125
1541874493101486,0.6875,0.5625,0.0625
1541874493123483,1.25,0.5625,0.0625
1541874493144554,0.3125,0.25,0.1875
1541874493161533,-0.5,-0.125,-0.3125
1541874493183530,2.1875,0.1875,-0.625
1541874493204566,3.625,-0.0625,-0.625
1541874493221579,2.875,-0.4375,-0.625
1541874493243577,2.125,-0.5,0.0625
1541874493264608,0.6875,-0.5,0.625
1541874493281645,-1.125,-0.25,1.0625
1541874493303624,-1.4375,0.4375,1
1541874493324656,-2.9375,0.9375,1.1875
1541874493341657,-4.375,1.625,1.25
1541874493363673,-4.75,1.875,0.4375
1541874493384704,-5.125,2,0.25
1541874493401760,-6.625,0.3125,1.125
1541874493423718,-10.4375,-4.5625,3.4375
1541874493444754,-14.1875,-6.75,8
1541874493460763,-15.75,-6.9375,11.125
1541874493483766,-11.5625,-7.25,12.8125
1541874493504802,-8.0625,-6.6875,14.1875
1541874493520814,-10.4375,-5.6875,17.625
1541874493543828,-11.4375,-4.5625,22.75
1541874493565850,-7.4375,-4.125,27.5
1541874493580862,-3.5,-4.5625,32.375
1541874493603863,-3.125,-4.125,36.6875
1541874493625897,0,-5,42.125
1541874493640908,4.6875,-6.125,49.1875
1541874493663926,3.375,-5.5,57.8125
1541874493685973,0.6875,-3.0625,64.6875
1541874493706944,-2.6875,-2.5,69.375
1541874493723974,-2.75,-2,75.875
1541874493745994,-3.125,-2.1875,77.625
1541874493767009,-2.0625,-2.375,81.375
1541874493784022,-4.25,-1.9375,86.125
1541874493806035,-4.4375,-1.4375,87.625
1541874493827038,-1.5625,-2.6875,90.25
1541874493844088,-0.9375,-5.125,91.375
1541874493866086,-2.4375,-6.125,91.5
1541874493887103,-1.5,-6.8125,89.9375
1541874493904116,8.25,-7.875,86.1875
1541874493926116,10.9375,-9.75,86.25
1541874493947150,3.5625,-9.375,87.6875
1541874493964165,-5.1875,-9.125,86.1875
1541874493986168,-3.5,-8.3125,84.1875
1541874494007231,2.1875,-8,83.5
1541874494024210,3,-8,83.1875
1541874494046207,-2.125,-7.8125,81.9375
1541874494067243,-5.5625,-6.75,79.0625
1541874494084257,4.125,-6.375,74.8125
1541874494106256,12.3125,-5.4375,69.125
1541874494127290,8.3125,-6.125,68.25
1541874494144301,-0.125,-4.5625,67.875
1541874494166302,-6.1875,-3.25,64.8125
1541874494187337,-5,-2.6875,58.6875
1541874494204343,0.1875,-3.9375,60.8125
1541874494226349,-0.4375,-3.4375,57.625
1541874494247384,-4.5625,-6.125,56
1541874494264379,-2,-8.0625,59.8125
1541874494286397,-0.75,-8.3125,57.875
1541874494307432,0.75,-7.375,54.6875
1541874494323426,5.625,-6.875,52.5625
1541874494346445,5.1875,-7.0625,50.0625
1541874494351485,1.9375,-6.9375,47.75
1541874494374468,2.25,-5.8125,44.1875
1541874494390479,0.25,-5.125,40.5625
1541874494411514,-2.375,-5.5625,38.5
1541874494434567,-1.6875,-5.75,35.0625
1541874494449540,-3.875,-6.5625,35.6875
1541874494471561,-6.4375,-5.4375,35.125
1541874494494579,-8.5625,-5.5625,32.875
1541874494509590,-9.375,-7.5625,35.625
1541874494531609,-10.8125,-8.8125,35.625
1541874494554609,-12.25,-10.75,37.5625
1541874494569621,-11.6875,-10.8125,38.6875
1541874494591636,-10.375,-8.3125,36.5625
1541874494614674,-5.5,-7.125,32.875
1541874494629685,-4.75,-8.75,31.8125
1541874494651703,-9.125,-6.3125,28.6875
1541874494674721,-8.625,-3.375,24.25
1541874494689728,-3,-0.375,19.125
1541874494711731,-3.25,-1.25,17.625
1541874494734763,-5.875,-2.25,17.75
1541874494749760,-6.375,-1.25,15.25
1541874494771797,-8.9375,-2.125,16.5625
1541874494794807,-9.6875,-3.5625,18.875
1541874494808826,-10.75,-4.9375,21.75
1541874494831825,-9.75,-5.0625,22.875
1541874494853862,-8.5,-5.75,21
1541874494868873,-11,-7.8125,22.875
1541874494891891,-13.125,-8.5625,24.9375
1541874494913909,-10.1875,-6.25,23.3125
1541874494928922,-8.625,-5.9375,22.875
1541874494951922,-7.1875,-5.5625,20.8125
1541874494973943,-4.625,-6.5625,19
1541874494989003,-5.75,-5.875,14.6875
1541874495011986,-3.875,-3.875,9
1541874495034003,-5.125,-2.625,3.25
1541874495049014,-4.75,-2.25,-1.375
1541874495072036,-7.6875,-3.4375,-2.75
1541874495090045,-10.6875,-5.25,-1.375
1541874495111081,-12.0625,-6.125,0.5625
1541874495132080,-12.3125,-6.125,2.1875
1541874495150095,-11.25,-6.6875,4.6875
1541874495171147,-11.875,-8.3125,7.4375
1541874495192164,-12.625,-9,8.125
1541874495210143,-11,-8.8125,9.5625
1541874495231161,-7.6875,-8.6875,11.3125
1541874495252174,-6.5,-7.0625,11.5
1541874495270185,-5.75,-7.25,12.0625
1541874495291189,-3.6875,-6.1875,11.625
1541874495312212,-2.75,-4.6875,10
1541874495330231,-2.625,-3.5,9.9375
1541874495351233,-0.6875,-1,9
1541874495372252,2.75,1,6.5625
1541874495390264,4.375,2,3.1875
1541874495411290,3.5,2.4375,1.25
1541874495432315,3.5,3.0625,1.6875
1541874495449330,2.5,3.1875,0.125
1541874495473348,1.0625,2.25,0.125
1541874495492360,0.5625,2,-0.125
1541874495509377,-0.375,1.25,0.8125
1541874495532394,-1.6875,0.5625,-0.0625
1541874495551389,-1.5625,-0.1875,0.1875
1541874495569431,-2.1875,-1,0.25
1541874495592424,-1.75,-1.5625,1.0625
1541874495611456,-1.5625,-1.125,0.875
1541874495629452,-0.25,-0.25,1.25
1541874495652489,0.25,0.1875,1.75
1541874495671504,0,0.1875,1.8125
1541874495689499,0.5,0.0625,1.3125
1541874495712535,0.0625,-0.625,0.1875
1541874495731551,0.625,-0.375,-2.5
1541874495757571,0.4375,0.1875,-3.4375
1541874495772601,-0.25,0.5625,-3.875
1541874495792600,-0.9375,0.5625,-3.125
1541874495808605,-1.25,0.0625,-2.125
1541874495831631,-0.6875,0.5,-1.625
1541874495852649,0.125,0.625,-1.25
1541874495868639,1.3125,0.4375,-1.125
1541874495891676,1.375,1.4375,-1.875
1541874495912693,2.75,1.4375,-2.1875
1541874495928687,2.625,1.5,-2.5625
1541874495951724,4,2.5625,-3.5625
1541874495972740,4,2.625,-3.25
1541874495988744,3.0625,2.375,-2.875
1541874496011806,2.625,1.8125,-2.1875
1541874496033776,2.1875,1,-1.8125
1541874496048790,2,0.5,-1.75
1541874496071817,3.375,1.3125,-3.6875
1541874496092834,4.1875,2.625,-5.3125
1541874496108827,5.4375,4.25,-8.125
1541874496131899,7.6875,5.5,-9.5625
1541874496152877,9.875,6.1875,-10.125
1541874496168875,11.625,7.5625,-12.375
1541874496191948,13.5,9.6875,-15.375
1541874496212929,15.5625,12.875,-21
1541874496227940,17.375,15.75,-28.8125
1541874496251959,18.375,17.0625,-34.5625
1541874496272975,17.25,19.4375,-41.8125
1541874496287988,17,23,-50.1875
1541874496312006,18.5,23.5625,-56.0625
1541874496333057,17.5625,21.0625,-60.1875
1541874496348039,12.375,17.9375,-62.5625
1541874496371034,3.0625,17.0625,-68.75
1541874496394064,0.5625,16,-75.4375
1541874496408075,8,13.8125,-77.125
1541874496431144,5.9375,8.5,-78.6875
1541874496454100,0.625,6.3125,-79.6875
1541874496468110,1.625,9.5,-84.375
1541874496491147,3.0625,12.125,-85.9375
1541874496514165,4.5625,10.375,-84.25
1541874496535217,2.8125,11,-82.6875
1541874496551194,1.75,14.0625,-83.125
1541874496574193,0.25,15.0625,-84.6875
1541874496595265,2.875,13.6875,-84.3125
1541874496611233,8.625,17,-84.4375
1541874496634259,6.625,17.3125,-84.625
1541874496655276,0.9375,15.5,-84.375
1541874496671271,-0.75,16.1875,-88.75
1541874496694307,1.3125,17.3125,-89.0625
1541874496715324,4.4375,17,-93.1875
1541874496731317,3.3125,15.3125,-96.125
1541874496754354,-2.25,9.5625,-99.1875
1541874496775353,3.6875,9.1875,-99.5
1541874496791366,15.8125,12.1875,-99.5625
1541874496814398,18.125,12.75,-103.063
1541874496835453,7.4375,9.5,-98.875
1541874496851413,-3.8125,11,-97.125
1541874496874449,-3.125,10.6875,-95.1875
1541874496895465,0.9375,10.625,-94.5625
1541874496911459,3.875,11.5,-92
1541874496934495,5.0625,11,-90.8125
1541874496955511,4.6875,7,-84.5
1541874496971510,-1.3125,5.125,-80.4375
1541874496994580,-2.3125,5.875,-76.1875
1541874497015597,-3.1875,4.875,-72
1541874497031563,-4.0625,1.9375,-66.0625
1541874497053589,-6.625,1.125,-58.3125
1541874497075601,-10.125,1.25,-53.5
1541874497091623,-5.75,0.75,-46.625
1541874497113672,-4.4375,-2.875,-41.625
1541874497134634,-2.9375,-4.4375,-36.1875
1541874497157671,2.25,-5.1875,-32.5625
1541874497173680,4.875,-6.0625,-30.125
1541874497194683,4.4375,-6.5625,-27.25
1541874497210694,4.375,-6.875,-26.25
1541874497233723,5,-6.9375,-25.6875
1541874497254746,4.6875,-7,-24.5
1541874497270740,4.8125,-8,-24.4375
1541874497293759,4.8125,-9,-24.0625
1541874497314790,4.375,-6.9375,-21.4375
1541874497330787,-1.1875,5.25,-1.5625
1541874497353806,12.1875,7.75,5.6875
1541874497376861,1.0625,0.3125,0.5
1541874497390835,9.5,-5.9375,-8.125
1541874497413854,25.5,-3.8125,-7.8125
1541874497436871,14.6875,-0.5,-0.375
1541874497450882,5.75,1.3125,2.1875
1541874497473911,2.5,-0.125,0.25
1541874497496938,5.875,-0.4375,-0.75
1541874497510948,9.1875,0.125,1.125
1541874497533946,4,0.25,2.1875
1541874497557020,-0.625,0.375,2.5625
1541874497570976,-0.3125,1.25,1.9375
1541874497593994,-0.125,1.6875,2.4375
1541874497617027,-1.5,1.3125,2.6875
1541874497631024,-0.9375,0.5625,2.75
1541874497654042,0.125,0,2.8125
1541874497677073,0.375,-0.25,2.8125
1541874497691090,-0.125,0.1875,2.3125
1541874497714088,-0.0625,-0.1875,1.875
1541874497736117,0,-0.125,1.5
1541874497751138,-0.875,0.0625,1.25
1541874497774136,-2.5625,-0.125,0.6875
1541874497796152,-2.625,0.25,0
1541874497811180,-2.4375,0.875,0.1875
1541874497834202,-3.4375,1.1875,0.25
1541874497856200,-4.25,0.9375,0.125
1541874497877217,-4.9375,0.375,0.1875
1541874497894230,-4.4375,0.125,0.375
1541874497916248,-3.25,-0.125,0.3125
1541874497937264,-3.4375,-0.1875,0.4375
1541874497954278,-3.125,-0.375,-0.25
1541874497976294,-0.75,-0.125,-0.3125
1541874497997311,1.125,-0.0625,-0.625
1541874498014327,1.375,-0.4375,-1
1541874498036359,1.625,-0.1875,-1.25
1541874498057377,1.8125,0.25,-1.125
1541874498074372,0.625,0.875,-0.875
1541874498096388,-1.25,1,-0.75
1541874498117405,-1.75,1.5,-0.75
1541874498134419,-1.6875,1.5,-0.5625
1541874498156436,-2,1.25,-0.375
1541874498177508,-0.875,1,-0.4375
1541874498194486,0.125,1.1875,-0.625
1541874498216483,-0.1875,0.1875,0.0625
1541874498237520,-1,-0.3125,1.4375
1541874498254533,-3.875,-0.3125,2.8125
1541874498276531,-7.8125,-1.375,2.75
1541874498299568,-11.9375,-3.9375,4.0625
1541874498314580,-11.3125,-4.3125,6.5625
1541874498336589,-9.125,-4.4375,6.5625
1541874498359618,-4.6875,-2.9375,10.8125
1541874498374608,-4.3125,-2,15.1875
1541874498396628,-4.125,-3.125,21.0625
1541874498419658,-3.625,-0.4375,25.75
1541874498439661,-5.125,0.625,31.9375
1541874498456672,-8.625,2,38.875
1541874498478744,-8.875,1.8125,46.5
1541874498500728,-4.5,1.9375,52.1875
1541874498516720,-5.25,2.125,57.0625
1541874498538756,-7.25,1.5625,61.4375
1541874498559756,-5.4375,1.5,68
1541874498576786,-2.125,3.1875,70.4375
1541874498598798,-9.9375,5.4375,78.9375
1541874498619856,-18.3125,1.9375,74.1875
1541874498636816,-11,2.125,81.0625
1541874498658860,-4.375,1.875,80
1541874498679866,-5.0625,2.4375,82.4375
1541874498696897,-6.25,1.1875,84.125
1541874498718884,-6.875,0.9375,85.125
1541874498739914,-6.5,0.125,86.625
1541874498756927,-4.6875,-0.125,88.4375
1541874498778941,-1.1875,0.6875,89.8125
1541874498799962,-0.6875,0.25,89.625
1541874498806966,-3.625,-2.875,89.625
1541874498821978,-5.5625,-6.4375,92.3125
1541874498844996,-11.75,-7.375,96.375
1541874498867013,-18.1875,-7.6875,97.8125
1541874498882026,-4,-6.5625,95.3125
1541874498905026,7.0625,-6.5,94.1875
1541874498927061,5.3125,-6.125,89.3125
1541874498942072,-1.8125,-9.625,85.4375
1541874498965085,-0.3125,-9.6875,83.125
1541874498987108,-1.375,-9.125,78
1541874499005123,-4.1875,-8.0625,71.9375
1541874499025135,1.0625,-6.6875,64.3125
1541874499047155,5.6875,-5.6875,59.8125
1541874499062167,-0.0625,-9.125,58.5
1541874499084185,-1.875,-9.0625,55.75
1541874499107202,1.875,-7.875,53.75
1541874499122214,3,-9.625,53.625
1541874499144267,-1.6875,-12.5625,57.4375
1541874499167285,-4.6875,-13.1875,58.1875
1541874499182248,-1.0625,-12.9375,56.6875
1541874499204314,3.4375,-13.125,55.875
1541874499222273,1.25,-13.8125,55.125
1541874499242308,-1.6875,-14.9375,58.3125
1541874499264309,-0.5,-13.1875,58.25
1541874499282330,5.0625,-11.3125,56.4375
1541874499302355,6.0625,-11.875,53.75
1541874499324354,0.125,-12.8125,51.875
1541874499343369,-3.875,-12.125,48.25
1541874499362403,-2.125,-11.375,45.875
1541874499384415,1.4375,-9.25,41.4375
1541874499402430,-0.1875,-9.125,38.875
1541874499422445,-5,-10.875,34.6875
1541874499444468,-7.125,-11.875,30.875
1541874499462462,-10.125,-13.0625,27.4375
1541874499482494,-14,-16.0625,27.25
1541874499504495,-17.375,-19.5,26.4375
1541874499522509,-21,-20.875,27.25
1541874499542525,-23.3125,-23.5625,29.6875
1541874499564541,-22,-23.1875,26.4375
1541874499582559,-19,-23.6875,24.0625
1541874499602628,-19.0625,-22.25,19.3125
1541874499624604,-18.25,-21.125,16.875
1541874499642605,-18.125,-19.5,16.75
1541874499662630,-15.4375,-17.1875,17.625
1541874499684639,-13.375,-15.25,19.4375
1541874499702670,-12.375,-13.3125,19.6875
1541874499723686,-13.375,-12.1875,19.1875
1541874499744703,-13.1875,-12.3125,17.3125
1541874499762698,-11.3125,-12.8125,17.0625
1541874499781712,-10.3125,-12.4375,17.6875
1541874499804731,-8.5625,-10.4375,17.4375
1541874499822745,-6.5,-7.6875,16.5
1541874499843761,-5.1875,-6.0625,15.875
1541874499864778,-2.1875,-3.5,14.625
1541874499882792,-0.6875,-2.375,12.0625
1541874499904809,0.375,-0.5,8.1875
1541874499924827,0.75,0.5625,6.25
1541874499942860,1.4375,1.1875,3.375
1541874499963875,0.1875,1.9375,0
1541874499984892,-0.0625,1.625,-1
1541874500002887,-1.25,1.5,-1.375
1541874500023904,-2,1.375,-1.9375
1541874500039916,-2.625,0.25,-1.125
1541874500062934,-3.8125,-1,-1
1541874500083950,-4.375,-1.75,-0.875
1541874500099963,-4.5625,-2.5,0.75
1541874500123001,-4.0625,-2.3125,1.6875
1541874500143997,-3.25,-2.0625,2.5625
1541874500160010,-2.25,-1.75,3.25
1541874500183028,-1.8125,-1.625,3.0625
1541874500205045,-1.0625,-1.5625,3
1541874500220057,0.1875,-0.1875,1.625
1541874500243091,1.375,1,-0.375
1541874500264095,0.75,0.8125,-1.75
1541874500285108,-0.1875,1.625,-2.125
1541874500302122,-0.4375,2.0625,-2.25
1541874500324139,0.125,1.8125,-1.5625
1541874500339151,0.5,1.1875,-0.5
1541874500362183,-0.375,0.125,-0.5
1541874500384190,-1.375,-1.1875,0.375
1541874500398198,-0.875,-0.9375,1.0625
1541874500422217,-1.125,-0.875,1.3125
1541874500444233,-0.0625,0.1875,1.9375
1541874500458244,0.875,0.75,1.625
1541874500481262,1,0.875,0.9375
1541874500504280,0.6875,0.875,0.375
1541874500518340,0.5,0.8125,-0.3125
1541874500542320,0.4375,0.1875,-0.4375
1541874500564328,0.6875,0.4375,-0.1875
1541874500578339,1,0.8125,-0.625
1541874500602373,0.75,0.6875,-1.25
1541874500624394,0.375,0.625,-1.5625
1541874500638386,0.1875,1,-1.5
1541874500662408,0.375,1.5,-1.1875
1541874500684441,0.1875,2.125,-1.1875
1541874500705494,0.75,2.625,-1.125
1541874500721462,1.3125,3.25,-1.75
1541874500744473,2.3125,2.9375,-1.8125
1541874500765488,3.375,2.75,-2.25
1541874500781514,4.3125,2.8125,-2.75
1541874500804536,5.6875,3.75,-4.3125
1541874500825589,7.4375,4.5625,-4.3125
1541874500841546,9,5.25,-5
1541874500864582,11.5,6.5,-5.1875
1541874500885594,13.5,8.8125,-8
1541874500901593,16.5,11.5,-14
1541874500924629,18.875,13.0625,-24.5
1541874500945646,26,15.625,-30.4375
1541874500961642,33.4375,20.875,-36.4375
1541874500984712,35.5625,27.5625,-47.0625
1541874501005730,36.25,32.1875,-55.875
1541874501021687,32.125,33.875,-66.9375
1541874501044725,27.875,33.5625,-75.4375
1541874501065741,24.875,34.1875,-82.4375
1541874501080732,24.875,36.25,-89.5
1541874501104771,24.5,37.1875,-95.1875
1541874501125823,21.0625,36.5,-100.375
1541874501140845,11.875,32.0625,-102
1541874501164814,6.5625,27.6875,-100.375
1541874501186817,6.5,24.0625,-99.875
1541874501209847,4.1875,22.375,-99.4375
1541874501224846,2.3125,21.5,-96.875
1541874501246864,0.4375,22,-97.75
1541874501267899,-0.1875,18.5625,-93.4375
1541874501283895,0.4375,15.1875,-89.875
1541874501306910,-1.875,16.8125,-87.5
1541874501327947,-1.625,21.4375,-91.25
1541874501343958,0.4375,22,-88
1541874501366973,0.3125,17.625,-84.5
1541874501387994,-1.375,14,-78.3125
1541874501404010,-0.9375,14.125,-73.9375
1541874501427025,1.3125,15,-70.6875
1541874501448076,4.125,15.5625,-69.0625
1541874501464052,2.1875,12.875,-66.8125
1541874501487055,-0.875,9.625,-62.8125
1541874501508088,-2,9.5,-59.3125
1541874501524081,0.125,10.125,-58.0625
1541874501547115,2.375,8.4375,-56.6875
1541874501568170,3.25,5.6875,-56.5
1541874501584129,0.1875,1.75,-54.5625
1541874501607161,0.3125,0.3125,-52.5625
1541874501628176,2.3125,3,-53.75
1541874501644178,7.3125,7.375,-60.375
1541874501667231,6.25,8.375,-61.9375
1541874501688210,2,5.6875,-58.75
1541874501704225,-2.0625,4.375,-56.5625
1541874501727260,1.375,5.6875,-57.4375
1541874501748261,6.6875,6.6875,-60
1541874501764289,5.125,7.0625,-59.75
1541874501787307,2.125,7,-60
1541874501808324,3.3125,7.5625,-60.1875
1541874501824317,4.875,8.125,-59.5625
1541874501847388,3.1875,8.0625,-58.4375
1541874501868367,-1.625,6.875,-55
1541874501883374,-6.5625,6.75,-51.25
1541874501907394,-7.6875,7.25,-47.75
1541874501928417,-3.25,7.4375,-45.1875
1541874501943424,1.6875,5.3125,-42.8125
1541874501967431,2.25,3.5625,-40.625
1541874501988451,1.5625,2.5,-38.8125
1541874502003458,1.6875,2.8125,-36.5
1541874502026496,1.5,3.0625,-33.9375
1541874502055518,1.375,2.375,-32.25
1541874502063505,1.4375,1.4375,-30
1541874502086582,1.1875,1.625,-27.5
1541874502109562,1,1.4375,-26.25
1541874502123553,4.0625,-0.875,-26.1875
1541874502146589,9.875,-2.9375,-25.625
1541874502169607,11,-4.8125,-24.6875
1541874502183614,9.875,-4.9375,-24.25
1541874502206626,8.75,-5,-24.5
1541874502229654,4.8125,-5.8125,-23.625
1541874502250707,4.8125,-6.5625,-23.8125
1541874502266666,10.625,-8.1875,-25.625
1541874502289702,20.125,-11.5625,-29.75
1541874502310754,28.5,-15.4375,-36.1875
1541874502326712,34,-13.9375,-41.25
1541874502349784,20.625,11.75,-16.875
1541874502370803,-1.3125,8.125,5.375
1541874502386769,-14.625,5.125,-2.125
1541874502409796,-11,1.375,-10.875
1541874502430812,25.375,2.75,-15.5
1541874502446805,38.3125,4.75,-12.625
1541874502469839,-12.875,7.3125,-4.6875
1541874502490896,-41,6.875,-2.1875
1541874502506854,-16.75,4.8125,-2.3125
1541874502529891,3.9375,2.375,-3.5625
1541874502550891,3.5625,1.5,-3.0625
1541874502566901,-6.8125,0.5,-0.5625
1541874502589973,-5.1875,-0.25,0
1541874502610989,3.6875,-0.625,0.1875
1541874502626957,4.75,-0.75,0.375
1541874502648967,-0.6875,-0.5,0.5
1541874502670992,-2.9375,-0.3125,0.375
1541874502687016,-0.75,0,-0.4375
1541874502709032,0.375,0.1875,-1
1541874502730031,-1.375,0.25,-0.8125
1541874502747043,-3.5,0.3125,-0.3125
1541874502769122,-3.625,0.5,-0.0625
1541874502790090,-1.5,0.4375,-0.25
1541874502807104,-0.3125,0.3125,-0.125
1541874502829160,-0.9375,0,0.5
1541874502850138,-1.5625,0.3125,0.4375
1541874502867136,-1.375,0.3125,0.5
1541874502889170,-0.75,0.4375,0.4375
1541874502910225,-2.4375,0.625,0.3125
1541874502927221,-4.3125,1.0625,0.5625
1541874502949217,-3.5,1.5,0.75
1541874502970272,-2.25,1.125,0.6875
1541874502987249,-3.1875,1.125,1
1541874503009248,-5.6875,1.4375,0.625
1541874503030319,-5.875,1.9375,0.6875
1541874503046278,-4.3125,2.25,1.125
1541874503069294,-4.8125,1.6875,2.125
1541874503092334,-6.4375,0.9375,3
1541874503107343,-5,0.3125,2.5625
1541874503129343,-2,-1.9375,3.8125
1541874503152379,-1.5625,-3.4375,5.5
1541874503167391,-2,-3.375,8.0625
1541874503189389,-0.625,-3.1875,9.4375
1541874503212427,0.875,-4.4375,11.125
1541874503226434,1.6875,-6.0625,13.5
1541874503233486,1.875,-7.1875,17.5
1541874503254460,-0.875,-7.25,21.375
1541874503277473,-2.3125,-6.6875,25.1875
1541874503295476,-3.75,-6.875,30
1541874503314502,-3.9375,-6.75,35.4375
1541874503337527,-1.5625,-6.625,40.5625
1541874503355541,0.4375,-7,45.375
1541874503374553,0.6875,-7.125,50.75
1541874503397572,-0.5,-6.9375,55
1541874503413567,-3.3125,-8.75,58.875
1541874503434602,-3.1875,-10.5625,62.3125
1541874503457619,0.125,-12.375,65.375
1541874503473622,2,-12.875,69.75
1541874503494650,4.75,-14.5625,70.6875
1541874503517666,7.875,-15.1875,73.9375
1541874503533659,7.3125,-15.4375,76
1541874503554696,2.625,-15.9375,78.6875
1541874503577714,1.6875,-16.875,81
1541874503593708,1.875,-16.5625,82.9375
1541874503614778,5.6875,-18.3125,85.6875
1541874503637796,8.6875,-18.625,86.375
1541874503653753,8.8125,-19,88.25
1541874503674790,5.8125,-18.5,90.1875
1541874503697808,4.0625,-17.75,91.25
1541874503713802,1.625,-17.125,94.25
1541874503734873,5.3125,-14.375,95.6875
1541874503757855,9.375,-12.625,98.5
1541874503773849,8.3125,-11.5,99.6875
1541874503794885,9.1875,-8.8125,98.5
1541874503817894,5.4375,-8.5625,101.5
1541874503834906,2.125,-8.6875,102.125
1541874503854932,-1.75,-6.6875,102.188
1541874503877932,0,-4.3125,100.313
1541874503893963,2.25,-3.3125,96.4375
1541874503914980,3.6875,-6,94.9375
1541874503936996,3.8125,-10.125,94.875
1541874503954010,1.75,-7.75,86
1541874503975028,3.875,-8.625,82.6875
1541874503997043,9.1875,-7.9375,76.9375
1541874504015038,9.0625,-11.3125,74.9375
1541874504035055,5.375,-11.625,71.4375
1541874504057090,1.0625,-10.125,66.375
1541874504075085,0.875,-9.8125,63.0625
1541874504095115,-1.5625,-11.6875,60.75
1541874504117137,-5.5625,-12.375,57.5
1541874504135133,-4.875,-12.6875,53.3125
1541874504155167,-4.9375,-15,50.25
1541874504177184,-8.9375,-16.8125,46.8125
1541874504195179,-10.4375,-15.75,42.875
1541874504215215,-6.375,-14.75,37.9375
1541874504237228,-1.9375,-15.625,35.625
1541874504255228,-1.4375,-14.8125,32.1875
1541874504275297,-4.125,-14.8125,29.5625
1541874504297279,-6.375,-13.9375,27.4375
1541874504315274,-7.625,-13.0625,26.125
1541874504335292,-6,-11.375,25.625
1541874504357321,-4.125,-10.75,24.625
1541874504375321,-3.75,-9.4375,21.8125
1541874504395356,-3.375,-8.9375,18.6875
1541874504417369,-4.75,-9.1875,14.25
1541874504435368,-3.375,-9.25,13.875
1541874504455399,-2.3125,-7.5625,10.3125
1541874504477404,-1.375,-5.5,6.6875
1541874504495417,2.1875,-3.0625,5.875
1541874504515451,0.5,-0.9375,4.8125
1541874504532465,-1.5625,0.625,5.8125
1541874504555481,-0.375,2.6875,6.1875
1541874504575500,-0.5,3.75,8
1541874504592512,-0.0625,4,9.375
1541874504615530,-0.6875,2.375,11.8125
1541874504636527,-0.875,1.5,14.1875
1541874504652539,-0.4375,0.4375,14.9375
1541874504675557,0.75,-0.5,15.9375
1541874504695575,1.1875,-2.5,16.4375
1541874504711586,1.0625,-2.0625,14.125
1541874504734604,-0.5625,-2.5625,12.25
1541874504755620,-1.8125,-3,11.125
1541874504771632,-2.9375,-3.1875,10.3125
1541874504794650,-3.1875,-3.75,9.8125
1541874504815681,-4,-2.75,6.875
1541874504831689,-4.3125,-3,5.75
1541874504854698,-5.3125,-2.5,3
1541874504875714,-4.3125,-2,2.875
1541874504891740,-3.875,-1.75,4.375
1541874504914755,-3.8125,-0.375,5.625
1541874504936772,-2.875,1.8125,2.5625
1541874504951786,-1.5625,1.9375,0.9375
1541874504974811,-1.9375,1.8125,0.8125
1541874504996809,-2.875,1.25,1.1875
1541874505011821,-2.9375,1.4375,2.5625
1541874505034858,-1.375,1.6875,3.375
1541874505056856,-0.5625,2,2.5625
1541874505071869,-0.4375,1.375,1.5625
1541874505094921,-0.0625,0.6875,0.375
1541874505117918,0.4375,0.375,-0.5
1541874505131934,0.6875,0.75,-2.4375
1541874505154933,0.5,1,-4.625
1541874505176961,0.4375,0.875,-6.75
1541874505191966,0.3125,1.5,-8.25
1541874505215001,-0.4375,1.9375,-9.25
1541874505236998,-1.1875,2.375,-9.3125
1541874505252010,-1,3.625,-9.25
1541874505275082,-1.8125,3.5625,-8
1541874505297045,-2.3125,3.9375,-7.3125
1541874505311056,-2,3.5,-6.8125
1541874505335108,-0.875,2.875,-7
1541874505357092,0.3125,2,-7
1541874505371106,0.25,1.5,-7.6875
1541874505395122,2,1.875,-9.625
1541874505417139,2.3125,1.5625,-10.875
1541874505438174,3,1.6875,-12.8125
1541874505455169,3.1875,1.6875,-13.8125
1541874505477188,3.3125,2.8125,-16.4375
1541874505498224,2.9375,4.1875,-18.6875
1541874505514215,3.5,6.0625,-20.9375
1541874505537253,4,7,-22.375
1541874505558270,3.125,8.5,-24.6875
1541874505574282,2.25,10.125,-28.1875
1541874505604306,2.1875,10.4375,-31.875
1541874505618317,3.6875,10.125,-35.3125
1541874505634321,4.25,9.625,-38.875
1541874505657347,4,8.75,-41.75
1541874505678354,4.125,7.75,-42
1541874505700376,2.6875,8.4375,-40.875
1541874505717394,2.6875,9.875,-42.25
1541874505738394,1.4375,11.75,-46.6875
1541874505754460,1.1875,11.125,-47.4375
1541874505777460,2.25,9.75,-46
1541874505798459,-0.0625,10.5,-46.625
1541874505814505,-1.1875,12,-48.6875
1541874505837487,3.1875,14.4375,-53.1875
1541874505858488,6.9375,13.9375,-57.9375
1541874505874518,6,11.5,-58.875
1541874505897535,3.625,11.3125,-57.75
1541874505919533,2.25,12.3125,-59.875
1541874505933560,5.8125,12.125,-60.875
1541874505957575,9.375,10.9375,-64.375
1541874505979596,6.25,8.8125,-64.625
1541874505993646,0.75,6.9375,-64
1541874506017626,-2.5,8.6875,-65.1875
1541874506039639,0.5,10.5625,-67.75
1541874506060645,3.9375,9.0625,-69.25
1541874506077671,-0.0625,6.0625,-67.8125
1541874506099676,-8.25,5.9375,-65.5
1541874506120747,-7.5625,9,-64
1541874506136714,-4.125,12,-64.0625
1541874506159732,-1.625,11.375,-63.5
1541874506180741,-2.5,11,-64.5
1541874506196754,-7.125,7.4375,-66.625
1541874506219790,-4.5,6.8125,-66.8125
1541874506240806,4.6875,7.8125,-67.75
1541874506256816,8,9.4375,-69.75
1541874506279832,5.0625,8.8125,-72.625
1541874506300853,1.5,6.5,-71.75
1541874506316855,-0.1875,10.1875,-70.875
1541874506339901,2.25,12.875,-70.5625
1541874506360881,-0.3125,13.125,-69.75
1541874506376916,1.625,11.6875,-71.5625
1541874506399931,5.25,10.625,-71.375
1541874506420949,1.6875,9.875,-72.5625
1541874506436941,-1.0625,10.5625,-71.75
1541874506459974,0.125,11.9375,-72.25
1541874506480975,3.0625,11.4375,-72.875
1541874506497004,3.375,9.25,-72.25
1541874506520016,0.5625,8.125,-71.25
1541874506541042,-1.25,8.5,-66.875
1541874506557044,-2.625,9.5,-64.25
1541874506580072,-0.625,8.625,-63.875
1541874506601088,0.875,5.75,-60.4375
1541874506616099,0,4.25,-55
1541874506640116,-4.75,5.1875,-50.25
1541874506661171,-5.125,5.6875,-46.625
1541874506676147,-5,4.3125,-43.9375
1541874506700162,-4.5,1.4375,-41.5625
1541874506721183,-2.25,0.8125,-37.625
1541874506736195,-0.4375,1.875,-34.5625
1541874506760213,-1.5,2.375,-32.3125
1541874506781261,-2.9375,1.0625,-30.375
1541874506796237,-2.625,-0.0625,-28
1541874506820255,0.25,0.25,-27.6875
1541874506842275,3.125,-0.625,-26.625
1541874506856286,3.0625,-1.1875,-24.75
1541874506879290,0.125,-0.75,-22.5
1541874506902307,0.375,-0.5625,-20.6875
1541874506916317,0.375,-1.25,-19.125
1541874506939354,0.125,-1.6875,-18.375
1541874506962372,2.25,-2.75,-17.8125
1541874506983371,1.9375,-3.1875,-17.6875
1541874506999435,1.9375,-3.5,-17.75
1541874507022419,3,-4,-18.9375
1541874507036421,3.5,-3.875,-18.4375
1541874507059440,1.9375,0.1875,-14.4375
1541874507082462,-2.25,6.1875,-5.375
1541874507096475,-4.125,5.6875,-0.1875
1541874507119489,0.25,2.5,-2.1875
1541874507142514,10.0625,0.5625,-5.125
1541874507156506,17.0625,0.0625,-6.625
1541874507179540,10.375,1.125,-5.75
1541874507202542,3.75,2.625,-3.0625
1541874507216553,5.3125,2.375,-1.6875
1541874507239586,7,1.25,-1.3125
1541874507262591,7.0625,1.0625,-1.4375
1541874507276604,7.1875,1.9375,-1.1875
1541874507299617,4.3125,1.75,-0.5
1541874507322655,1.3125,1.375,-0.0625
1541874507343671,1.5,1.25,0.1875
1541874507359664,2.375,1.3125,0.3125
1541874507382694,1.4375,1.3125,0.4375
1541874507403720,1.25,1.25,0.625
1541874507419711,2,0.9375,0.375
1541874507442745,2.6875,0.75,0.1875
1541874507463758,2.75,0.25,0.375
1541874507479760,1.5,0.4375,0.0625
1541874507502779,1.6875,0.375,-0.0625
1541874507523806,2.5,0.6875,-0.0625
1541874507539816,1.75,0.4375,-0.1875
1541874507561844,0.8125,0.5,-0.5
1541874507583846,0.1875,0.3125,-0.375
1541874507599868,1.4375,0.1875,0.0625
1541874507621926,1.125,0.125,0.3125
1541874507642902,-0.25,0.125,0.4375
1541874507659916,-1.5,0,0.375
1541874507681940,-0.8125,0.1875,0.3125
1541874507687925,-0.25,0.5625,-0.0625
1541874507709943,-0.4375,0.25,-0.25
1541874507724963,0,0.25,-0.375
1541874507747989,0.4375,0.1875,-0.1875
1541874507769987,0.125,0.125,0
1541874507785054,-0.375,0.125,0.125
1541874507808037,-0.5625,0.375,0.125
1541874507830054,-0.625,0.4375,0
1541874507845065,-0.625,0.5625,-0.0625
1541874507868083,-1.0625,0.3125,0.0625
1541874507890081,-0.6875,0.375,0.0625
1541874507905150,-0.6875,0.125,0.0625
1541874507928126,0,0.375,0.3125
1541874507950130,-0.6875,0,0.5625
1541874507965196,-0.6875,0.125,0.375
1541874507988172,-0.8125,0.125,0.5
1541874508010196,-1.0625,-0.125,1.0625
1541874508025208,-1.25,-0.6875,2.125
1541874508048216,-3.5,-1.5625,3.5
1541874508070242,-6.0625,-3,4.9375
1541874508085254,-7.1875,-5.4375,6.8125
1541874508107272,-8.1875,-6.5625,8.6875
1541874508125282,-8.5625,-7.375,10.875
1541874508145282,-8,-8.9375,16.1875
1541874508167319,-6.5625,-8.9375,20.5
1541874508190336,-5.3125,-8.6875,25.375
1541874508205344,-2.9375,-8,28.9375
1541874508227401,-0.375,-8.625,33.4375
1541874508250384,-1,-8.25,37.625
1541874508265391,-1.6875,-8.5,43.4375
1541874508287449,1.4375,-9.5625,49.5
1541874508310431,7.875,-8.9375,55.5625
1541874508325438,7.125,-8.8125,60.875
1541874508347462,6,-8.3125,66.3125
1541874508370481,3.9375,-8.125,71.5625
1541874508386482,-9,-4.9375,81.25
1541874508407508,-5.625,-5.5,76.4375
1541874508430526,-5.5625,-5.0625,83.625
1541874508446528,-2.8125,-5,84.0625
1541874508467554,0.3125,-4.75,87.5
1541874508490609,-0.6875,-4.75,89.75
1541874508506570,-0.5625,-4.5,91.75
1541874508527637,-0.5625,-5.125,93.375
1541874508550657,-3.25,-6.1875,95
1541874508566629,3.8125,-5.0625,94.9375
1541874508587644,6.1875,-3.9375,95.3125
1541874508610650,-1.125,-5.4375,96.0625
1541874508626660,-8.875,-5.8125,95.8125
1541874508647687,-3.75,-3.5,93.5
1541874508665709,0.375,-5.3125,91.75
1541874508687763,1.6875,-5.75,91.6875
1541874508707780,0.5,-3.5625,89.75
1541874508725752,-0.875,-4.625,87.375
1541874508747775,-3.0625,-5.6875,83.25
1541874508767785,-5.75,-6.125,82.125
1541874508785800,-4.75,-6.125,79.125
1541874508807823,-4.625,-6.625,75.3125
1541874508827828,-0.375,-7.0625,72.125
1541874508845851,1.25,-6.8125,68.0625
1541874508867891,-1.3125,-6.1875,60.8125
1541874508887880,-0.625,-7.125,61.125
1541874508905882,-0.75,-6.875,58.3125
1541874508927898,-0.75,-6.5,55.875
1541874508947932,-1,-6.625,53.9375
1541874508965943,-1.6875,-7.125,51.8125
1541874508987955,-0.5,-7.0625,48.75
1541874509007979,0.375,-6.4375,46.25
1541874509026011,-0.75,-6.25,43.0625
1541874509047992,1.8125,-7.8125,40.8125
1541874509069008,2.875,-6.875,38.3125
1541874509086040,-0.5625,-6.125,34.875
1541874509108038,-1.6875,-6,32.875
1541874509131075,0.1875,-6,31.3125
1541874509145068,-0.6875,-6.5,28.625
1541874509167095,-2.125,-6.3125,26.4375
1541874509188120,-2.4375,-6.9375,26.625
1541874509205117,-4.25,-7.3125,28.125
1541874509227132,-4.375,-6.5625,28.125
1541874509248168,-3.25,-5.875,26.375
1541874509265180,-2.75,-6,27.125
1541874509287189,-2.3125,-5.8125,24.625
1541874509308210,-1,-5.3125,22.125
1541874509325210,-1.1875,-5.4375,22.25
1541874509347236,-2.4375,-4.875,20.6875
1541874509368261,-2.4375,-4.625,18.5625
1541874509385275,-3.25,-4.8125,19.125
1541874509407283,-4.9375,-5.625,19.25
1541874509428309,-6.5625,-6.625,20.625
1541874509445323,-5.9375,-6.8125,20.375
1541874509467322,-6.25,-6.75,19.5
1541874509488356,-6,-5.1875,16.8125
1541874509504369,-6.125,-5.5,16.9375
1541874509527367,-8.3125,-5.8125,16.1875
1541874509548404,-9.875,-6.875,16.3125
1541874509564418,-8.0625,-7.5,14.875
1541874509587429,-6.6875,-7.875,14.0625
1541874509616452,-6.4375,-7.875,13.5
1541874509624462,-5.8125,-7.375,12.1875
1541874509647464,-5.4375,-7.25,11.6875
1541874509670480,-4.9375,-6.5,10.8125
1541874509685509,-4.6875,-5.3125,10.125
1541874509707528,-4.625,-4.375,10.375
1541874509729536,-4.25,-2.9375,9.8125
1541874509744600,-2.9375,-1.875,10.0625
1541874509767557,-2.875,-0.25,9.625
1541874509789629,-2.625,1.25,8.6875
1541874509804604,-2.6875,1.4375,6.625
1541874509827623,-2.8125,0.875,5.0625
1541874509849664,-3.3125,0.4375,4.5625
1541874509864652,-2.3125,0.4375,4.3125
1541874509887670,-3.375,0.1875,5.125
1541874509909669,-3.5,-0.375,6.4375
1541874509924694,-2.4375,-0.875,8.25
1541874509947733,-4.1875,-1.3125,9.3125
1541874509969716,-3.4375,-2.1875,11.0625
1541874509984742,-2.4375,-1.9375,12.0625
1541874510007800,-2.375,-1.125,11.9375
1541874510029762,-0.6875,0.3125,10.8125
1541874510044778,-0.375,0.5,10.4375
1541874510067811,-0.625,1.0625,9
1541874510089809,-0.6875,1.3125,8.25
1541874510104832,-0.3125,1.4375,6.1875
1541874510127854,0.1875,1.5625,4.5
1541874510149858,-0.375,1.6875,2.9375
1541874510170893,-1.625,1.375,2.5
1541874510187896,-2.0625,0.8125,3.375
1541874510209904,-1.875,0.625,4.0625
1541874510230921,-2.125,0.25,3.9375
1541874510247953,-1.8125,0.1875,2.6875
1541874510269962,-2.0625,0.3125,1.5
1541874510290988,-2,-0.375,1.875
1541874510307981,-2.1875,-1.0625,3.4375
1541874510330000,-0.75,-0.9375,4.1875
1541874510351069,0.125,-0.125,3.3125
1541874510367042,0.3125,0,3.4375
1541874510390046,0.5,-0.4375,3
1541874510411082,-0.6875,-0.1875,1.6875
1541874510427094,-0.375,-0.5625,1.875
1541874510450111,-0.5625,-0.1875,1.75
1541874510471163,0.5,0.125,1
1541874510487137,0.25,0.4375,-0.125
1541874510510159,-0.1875,0.9375,-1.4375
1541874510531211,-0.375,1.3125,-2.3125
1541874510547181,0.1875,1.1875,-1.9375
1541874510570201,-0.3125,1.3125,-1.4375
1541874510592219,0.625,1.5,-1.625
1541874510607225,-0.0625,0.9375,-0.9375
1541874510630253,-0.75,0.5,0.4375
1541874510652268,-0.1875,0.4375,1.3125
1541874510667264,0.5625,0.4375,2.5
1541874510690316,1,0.375,2.4375
1541874510712314,0.6875,0.125,1.4375
1541874510727320,0.8125,-0.0625,1.25
1541874510750382,0.5,-0.125,1.0625
1541874510772355,0.875,0.25,0.375
1541874510787368,1,0.3125,-0.375
1541874510810396,0.75,0.3125,-1
1541874510832392,1.3125,0.5,-1.4375
1541874510846424,1.25,0.375,-1.6875
1541874510870478,1.25,0.5,-2.6875
1541874510892441,2.25,0.5625,-3.6875
1541874510906461,2.5625,0.5,-4.5
1541874510930489,3.0625,0.1875,-5.625
1541874510952487,3.125,0,-6.375
1541874510966531,3.375,0.25,-6.375
1541874510990526,2.6875,1.4375,-7.6875
1541874511020557,3.875,1.5625,-7.875
1541874511026555,4.6875,1.9375,-9.1875
1541874511049582,5.125,1.9375,-9.375
1541874511072592,5.875,1.6875,-11.375
1541874511093599,6.75,1.8125,-14.5
1541874511109613,7.4375,2.8125,-18.0625
1541874511132643,7.9375,3.75,-20.875
1541874511153664,8.125,4.375,-23.375
1541874511169677,7.0625,5.1875,-26.125
1541874511192695,5.9375,6.8125,-32
1541874511213711,6.5,8.1875,-38.375
1541874511229719,9.125,9.0625,-43.8125
1541874511252734,9.75,9.375,-48
1541874511273749,9,10.0625,-50.8125
1541874511289755,7.8125,11.125,-56.1875
1541874511312780,3.9375,9.4375,-59.75
1541874511333797,4.4375,9.5625,-60.0625
1541874511349800,5,9.375,-62.125
1541874511372827,2.0625,9.75,-64.5625
1541874511393844,1,11.5625,-69.9375
1541874511409846,2,10.5,-73.8125
1541874511432879,4,8.375,-74.375
1541874511453891,2.25,8.4375,-74.625
1541874511469894,-0.125,9.8125,-79.8125
1541874511492921,3.8125,8.4375,-81.125
1541874511513938,8.375,6.875,-78.75
1541874511535945,4.8125,9,-75.4375
1541874511552969,-1.5625,12.25,-77.5625
1541874511574977,-3.1875,9.75,-79.125
1541874511588997,2,7.4375,-78.375
1541874511613021,2.625,6.8125,-74.5
1541874511635035,-1,9.25,-71
1541874511649048,-4.6875,11.75,-70.0625
1541874511672067,-4.625,10.75,-71.875
1541874511695072,0.4375,7.8125,-70.625
1541874511716086,2.8125,8.5,-69.375
1541874511732114,1.5,12.625,-68.625
1541874511755128,2.9375,15.9375,-69.9375
1541874511776144,3.5625,13.5,-67.375
1541874511792157,0.375,12.5,-67
1541874511815165,1.125,14.9375,-66.8125
1541874511836191,4.9375,17.5625,-66.3125
1541874511852208,12.9375,18.375,-66.5
1541874511875221,11.25,15.375,-66.4375
1541874511896268,4.5,13.125,-65
1541874511912256,-2.0625,14.5,-65.0625
1541874511935269,-5.0625,15.4375,-63.5
1541874511956290,-1.375,16,-62.3125
1541874511972289,2.4375,15.1875,-62.1875
1541874511995321,2.375,12.6875,-63.0625
1541874512016362,1.1875,12.0625,-61.1875
1541874512032336,-2.3125,11.875,-60.375
1541874512055390,-1.8125,11.9375,-58.9375
1541874512076390,1.6875,12.3125,-58.6875
1541874512092383,3.25,10.25,-58.5625
1541874512115419,1.6875,7.25,-56.3125
1541874512136437,-3.5625,6.5,-52.875
1541874512152429,-6.375,6.625,-48.9375
1541874512158444,-4.3125,5.6875,-46.6875
1541874512180463,-1.4375,4,-45.5625
1541874512203483,-0.3125,1.1875,-44.3125
1541874512217495,0.9375,0,-43.3125
1541874512240513,-0.25,0,-40.8125
1541874512262530,-1.125,0,-41.375
1541874512277543,2.25,-0.25,-41.4375
1541874512300560,3.875,-2.5,-39.5625
1541874512322573,0.125,-2.1875,-37.5625
1541874512337589,-2.125,-0.9375,-35.8125
1541874512360603,-0.4375,-0.8125,-35.0625
1541874512382612,-0.5,-1.125,-33.1875
1541874512397632,-2.125,-2.3125,-32.75
1541874512420650,-0.625,-3.5,-32
1541874512442668,2.4375,-3.9375,-33.0625
1541874512457684,4.0625,-5.1875,-33.875
1541874512480701,3.875,-6.25,-32.3125
1541874512502714,0.75,0.875,-21.5
1541874512517717,-6.125,12.1875,2
1541874512540744,-5.1875,4.75,2.25
1541874512562752,-6.875,0.25,-0.9375
1541874512577774,20.1875,-3.75,-6.9375
1541874512600793,30.25,-6.3125,-7.6875
1541874512622809,8.0625,-2.5625,-3.875
1541874512637821,3.75,1,0.6875
1541874512660843,11.125,-1.3125,0.8125
1541874512682860,10,-2.75,-0.4375
1541874512697870,11.375,-2.0625,-1.5
1541874512720888,12.3125,-0.5625,-1.125
1541874512738900,8.375,0.25,-0.875
1541874512757915,6.875,0.1875,-0.9375
1541874512780933,8.8125,-0.5,-0.6875
1541874512798952,10.375,-0.625,0.0625
