timestamp,roll,pitch,yaw
1541872381098490,-0.633566,-0.0178647,-0.238831
1541872381120543,-0.634805,-0.0160295,-0.237923
1541872381135541,-0.635553,-0.0147267,-0.236814
1541872381158541,-0.637935,-0.0140371,-0.23544
1541872381180566,-0.642437,-0.0136775,-0.233498
1541872381195589,-0.646303,-0.0136952,-0.232199
1541872381234622,-0.649737,-0.0137873,-0.231232
1541872381236615,-0.652708,-0.0137329,-0.230055
1541872381249630,-0.655732,-0.0138801,-0.228279
1541872381272635,-0.658754,-0.0140442,-0.225468
1541872381286660,-0.661678,-0.0140365,-0.22297
1541872381315688,-0.663035,-0.0139343,-0.220705
1541872381359725,-0.66638,-0.0135016,-0.218357
1541872381369734,-0.669295,-0.013509,-0.215589
1541872381370714,-0.671126,-0.013696,-0.2122
1541872381383726,-0.674087,-0.0142364,-0.209104
1541872381404762,-0.675756,-0.0148621,-0.205943
1541872381427781,-0.67733,-0.0149149,-0.201936
1541872381445795,-0.680425,-0.0151401,-0.197256
1541872381464811,-0.684046,-0.0154732,-0.192421
1541872381487826,-0.688089,-0.0154118,-0.187858
1541872381505827,-0.692545,-0.0152119,-0.183222
1541872381524856,-0.697483,-0.0142439,-0.178228
1541872381550863,-0.703711,-0.0128577,-0.172884
1541872381564894,-0.711146,-0.0114641,-0.16771
1541872381584910,-0.718715,-0.0101306,-0.162778
1541872381607924,-0.727115,-0.00997876,-0.158463
1541872381624945,-0.736002,-0.010782,-0.15392
1541872381644960,-0.745586,-0.0129861,-0.149219
1541872381666978,-0.755955,-0.0176335,-0.14498
1541872381684987,-0.768778,-0.0256178,-0.141086
1541872381704993,-0.786371,-0.0379097,-0.136556
1541872381727063,-0.80864,-0.0519424,-0.130253
1541872381745026,-0.829183,-0.0650066,-0.123895
1541872381766083,-0.846483,-0.0779395,-0.119621
1541872381787077,-0.867217,-0.092729,-0.117831
1541872381805074,-0.891049,-0.104461,-0.117649
1541872381826107,-0.912216,-0.113351,-0.120181
1541872381847163,-0.925451,-0.118926,-0.125702
1541872381865132,-0.929927,-0.121883,-0.134272
1541872381886139,-0.928071,-0.122088,-0.146163
1541872381907176,-0.928174,-0.11937,-0.160303
1541872381925173,-0.93349,-0.113224,-0.17539
1541872381946198,-0.938797,-0.105791,-0.191073
1541872381967225,-0.941861,-0.0980546,-0.207962
1541872381985220,-0.942579,-0.091612,-0.227137
1541872382006238,-0.944782,-0.0867104,-0.24808
1541872382027294,-0.946457,-0.0839669,-0.271159
1541872382045270,-0.947276,-0.082298,-0.294709
1541872382066287,-0.948174,-0.0822732,-0.318172
1541872382087315,-0.953106,-0.0867723,-0.340285
1541872382106323,-0.958157,-0.0965614,-0.360771
1541872382126345,-0.962116,-0.110318,-0.381792
1541872382147369,-0.96649,-0.125969,-0.402252
1541872382165370,-0.974883,-0.144293,-0.421016
1541872382188404,-0.989849,-0.16451,-0.440885
1541872382207423,-0.999073,-0.185587,-0.46179
1541872382225434,-1.00443,-0.213864,-0.481932
1541872382254445,-1.01006,-0.245415,-0.500766
1541872382268512,-1.01621,-0.280413,-0.519505
1541872382284482,-1.02153,-0.318707,-0.535039
1541872382307501,-1.02925,-0.359117,-0.54899
1541872382328558,-1.03879,-0.398351,-0.560866
1541872382350542,-1.04593,-0.436842,-0.572726
1541872382367551,-1.05234,-0.475204,-0.582477
1541872382389565,-1.05371,-0.514329,-0.591671
1541872382410626,-1.05091,-0.556257,-0.596413
1541872382426604,-1.05047,-0.595446,-0.600145
1541872382449604,-1.04973,-0.630993,-0.605161
1541872382470675,-1.04954,-0.657669,-0.611807
1541872382486646,-1.05477,-0.681439,-0.617674
1541872382509653,-1.06133,-0.704128,-0.618206
1541872382530690,-1.05824,-0.726613,-0.619849
1541872382546687,-1.04659,-0.748044,-0.62381
1541872382569717,-1.03895,-0.771863,-0.630901
1541872382590719,-1.03733,-0.792174,-0.643866
1541872382606735,-1.03734,-0.80925,-0.660482
1541872382629766,-1.03623,-0.826434,-0.678033
1541872382650769,-1.03877,-0.843445,-0.692012
1541872382666837,-1.04344,-0.859439,-0.698204
1541872382689821,-1.04187,-0.872693,-0.703089
1541872382713835,-1.04595,-0.883883,-0.704916
1541872382726887,-1.05531,-0.892068,-0.704535
1541872382749853,-1.06278,-0.897545,-0.702575
1541872382771885,-1.06829,-0.902519,-0.701988
1541872382786937,-1.07543,-0.90583,-0.699817
1541872382809903,-1.08104,-0.909025,-0.695268
1541872382831934,-1.08509,-0.913765,-0.688448
1541872382852955,-1.08872,-0.921602,-0.680454
1541872382869965,-1.09378,-0.931756,-0.672421
1541872382891971,-1.10154,-0.943913,-0.66474
1541872382913004,-1.10675,-0.957441,-0.660227
1541872382931000,-1.10509,-0.971662,-0.659469
1541872382952020,-1.09805,-0.988322,-0.661779
1541872382973054,-1.08821,-1.00597,-0.6654
1541872382990068,-1.07592,-1.02438,-0.672032
1541872383012082,-1.06583,-1.04177,-0.679825
1541872383033139,-1.0589,-1.05681,-0.687669
1541872383050117,-1.05318,-1.06891,-0.695375
1541872383072117,-1.04833,-1.07863,-0.702234
1541872383093153,-1.04421,-1.08694,-0.70864
1541872383110164,-1.04346,-1.09413,-0.715585
1541872383132168,-1.0465,-1.09938,-0.721673
1541872383153202,-1.05137,-1.10388,-0.728407
1541872383170197,-1.05699,-1.10643,-0.735307
1541872383192217,-1.06108,-1.10851,-0.74286
1541872383213251,-1.06418,-1.11143,-0.75206
1541872383229246,-1.06929,-1.11418,-0.761867
1541872383252284,-1.07641,-1.11639,-0.771411
1541872383273301,-1.08432,-1.11793,-0.780188
1541872383290315,-1.09443,-1.11711,-0.787773
1541872383312335,-1.10751,-1.11274,-0.792236
1541872383333388,-1.1261,-1.10673,-0.79165
1541872383349364,-1.14607,-1.09801,-0.790483
1541872383372384,-1.16763,-1.08261,-0.781812
1541872383393401,-1.18103,-1.06642,-0.775246
1541872383409414,-1.20319,-1.0489,-0.762012
1541872383432414,-1.22159,-1.03291,-0.75056
1541872383453449,-1.23602,-1.01892,-0.742204
1541872383469463,-1.25245,-1.00472,-0.737503
1541872383492482,-1.27005,-0.990377,-0.736187
1541872383513540,-1.28538,-0.977451,-0.738667
1541872383529513,-1.30166,-0.966931,-0.738787
1541872383552532,-1.31276,-0.962102,-0.744664
1541872383573549,-1.33306,-0.954982,-0.747453
1541872383595603,-1.35756,-0.945493,-0.742619
1541872383612599,-1.38033,-0.933316,-0.735219
1541872383634582,-1.40347,-0.916745,-0.727564
1541872383649609,-1.42722,-0.894123,-0.721515
1541872383672626,-1.45288,-0.865387,-0.71356
1541872383694645,-1.46972,-0.833181,-0.708257
1541872383715665,-1.48129,-0.799792,-0.704351
1541872383732680,-1.49557,-0.763263,-0.699897
1541872383754680,-1.50676,-0.726047,-0.696192
1541872383775699,-1.51408,-0.685635,-0.692849
1541872383792764,-1.52107,-0.642519,-0.688988
1541872383814729,-1.52766,-0.596525,-0.68438
1541872383835801,-1.53174,-0.548102,-0.679808
1541872383852775,-1.53427,-0.498588,-0.675189
1541872383874778,-1.53853,-0.447201,-0.67079
1541872383895850,-1.54298,-0.395419,-0.667776
1541872383912810,-1.54644,-0.343255,-0.665348
1541872383934847,-1.54951,-0.291239,-0.66343
1541872383955864,-1.55239,-0.239431,-0.661281
1541872383971877,-1.5542,-0.187445,-0.657996
1541872383994895,-1.5549,-0.136836,-0.65382
1541872384015913,-1.5548,-0.0870909,-0.648479
1541872384031924,-1.5559,-0.0378961,-0.642632
1541872384054928,-1.55781,0.0104657,-0.636808
1541872384075963,-1.5594,0.0576716,-0.631355
1541872384091987,-1.56057,0.102942,-0.62448
1541872384114996,-1.56218,0.146766,-0.616056
1541872384136016,-1.56408,0.188309,-0.606177
1541872384152006,-1.56343,0.228056,-0.594531
1541872384175061,-1.56349,0.265512,-0.581455
1541872384197059,-1.56366,0.302053,-0.567601
1541872384212076,-1.56249,0.3363,-0.554494
1541872384235095,-1.55976,0.367695,-0.541766
1541872384256111,-1.55618,0.394565,-0.529385
1541872384272105,-1.55341,0.417549,-0.517492
1541872384295143,-1.54982,0.436332,-0.506738
1541872384316161,-1.5447,0.451428,-0.497335
1541872384332155,-1.53941,0.463346,-0.489879
1541872384355193,-1.53452,0.472873,-0.483829
1541872384376210,-1.53009,0.481629,-0.479553
1541872384391223,-1.52517,0.489712,-0.476288
1541872384415243,-1.51963,0.495273,-0.47339
1541872384436241,-1.51291,0.499217,-0.470663
1541872384442265,-1.50596,0.50343,-0.466305
1541872384459275,-1.50231,0.506732,-0.460891
1541872384480292,-1.49937,0.50922,-0.456356
1541872384502350,-1.49539,0.511091,-0.453465
1541872384519339,-1.49285,0.513358,-0.451129
1541872384540346,-1.4902,0.514883,-0.44782
1541872384562363,-1.48846,0.516944,-0.444479
1541872384577371,-1.4874,0.518587,-0.441207
1541872384601377,-1.48604,0.519439,-0.438851
1541872384622397,-1.48385,0.520081,-0.436645
1541872384637407,-1.48178,0.521228,-0.433469
1541872384660480,-1.48098,0.521447,-0.429957
1541872384682463,-1.48002,0.521039,-0.426679
1541872384697476,-1.47878,0.519709,-0.42442
1541872384720495,-1.47788,0.51706,-0.423884
1541872384742514,-1.47689,0.51307,-0.424785
1541872384757527,-1.47669,0.508647,-0.426433
1541872384780526,-1.47676,0.503588,-0.428146
1541872384798593,-1.47768,0.498893,-0.430712
1541872384817575,-1.47838,0.494383,-0.434131
1541872384840593,-1.47856,0.49004,-0.437703
1541872384862595,-1.47899,0.485852,-0.440965
1541872384877659,-1.47915,0.481246,-0.443613
1541872384900643,-1.47926,0.476057,-0.446331
1541872384922661,-1.47998,0.469777,-0.450004
1541872384937672,-1.48063,0.460776,-0.454635
1541872384960692,-1.48195,0.449365,-0.460574
1541872384982711,-1.48293,0.435384,-0.466224
1541872384997723,-1.48444,0.418884,-0.471229
1541872385020741,-1.48678,0.399779,-0.475459
1541872385042759,-1.48997,0.378171,-0.479543
1541872385057772,-1.49462,0.354481,-0.484024
1541872385080788,-1.5003,0.32872,-0.489313
1541872385102845,-1.5055,0.301444,-0.49526
1541872385117821,-1.5091,0.272956,-0.501643
1541872385140821,-1.51189,0.244098,-0.508371
1541872385162894,-1.5144,0.213842,-0.515076
1541872385179856,-1.51691,0.18278,-0.521379
1541872385199889,-1.51912,0.151393,-0.526687
1541872385222908,-1.52147,0.12074,-0.530725
1541872385238914,-1.52313,0.0901715,-0.535223
1541872385259938,-1.5231,0.0592676,-0.540921
1541872385282958,-1.52566,0.0300876,-0.54496
1541872385298956,-1.52897,0.0018982,-0.547596
1541872385319988,-1.53028,-0.0252441,-0.550951
1541872385337991,-1.52973,-0.0510591,-0.554335
1541872385359011,-1.53037,-0.0752056,-0.557609
1541872385380040,-1.53201,-0.0979482,-0.561322
1541872385398034,-1.53358,-0.119459,-0.56575
1541872385419057,-1.53281,-0.14051,-0.569846
1541872385440087,-1.53158,-0.160906,-0.57298
1541872385458083,-1.5322,-0.180183,-0.575309
1541872385479102,-1.53337,-0.199299,-0.578523
1541872385500171,-1.53337,-0.217111,-0.58324
1541872385523156,-1.53115,-0.234887,-0.588411
1541872385541170,-1.52989,-0.252644,-0.591352
1541872385560186,-1.53204,-0.269904,-0.59225
1541872385578182,-1.5339,-0.287137,-0.595054
1541872385601203,-1.53228,-0.304062,-0.599734
1541872385620236,-1.52835,-0.321131,-0.605263
1541872385638236,-1.52575,-0.33927,-0.608954
1541872385661260,-1.5262,-0.358793,-0.610765
1541872385680320,-1.52679,-0.378967,-0.613068
1541872385698280,-1.52414,-0.40003,-0.616948
1541872385720317,-1.51855,-0.421854,-0.621994
1541872385740334,-1.51396,-0.444777,-0.625809
1541872385758350,-1.51239,-0.468841,-0.627991
1541872385781352,-1.51184,-0.492836,-0.629721
1541872385800385,-1.51069,-0.515757,-0.632406
1541872385818398,-1.50866,-0.537247,-0.635096
1541872385840417,-1.50728,-0.557619,-0.637813
1541872385861434,-1.50773,-0.577025,-0.640259
1541872385877438,-1.50676,-0.595604,-0.643209
1541872385900454,-1.50404,-0.614482,-0.646452
1541872385921527,-1.49972,-0.63479,-0.650298
1541872385937478,-1.49524,-0.656222,-0.654261
1541872385960507,-1.49299,-0.678235,-0.65737
1541872385981513,-1.49169,-0.70048,-0.66155
1541872385997527,-1.48786,-0.72287,-0.667555
1541872386020562,-1.48369,-0.746078,-0.673466
1541872386041586,-1.47927,-0.769874,-0.678479
1541872386057591,-1.47493,-0.793806,-0.683845
1541872386079597,-1.47032,-0.817548,-0.690352
1541872386100631,-1.46497,-0.839804,-0.698661
1541872386117636,-1.45991,-0.861026,-0.707849
1541872386139700,-1.45506,-0.882114,-0.718025
1541872386160681,-1.44964,-0.902733,-0.729424
1541872386177695,-1.44335,-0.923756,-0.741414
1541872386199694,-1.43564,-0.945368,-0.753688
1541872386220730,-1.42682,-0.967605,-0.766949
1541872386237744,-1.41774,-0.98921,-0.78125
1541872386259754,-1.40931,-1.0094,-0.796384
1541872386280816,-1.4015,-1.0268,-0.810885
1541872386296788,-1.39365,-1.04194,-0.823889
1541872386319809,-1.38593,-1.05537,-0.83671
1541872386340830,-1.38,-1.06656,-0.847965
1541872386356833,-1.37585,-1.07568,-0.858295
1541872386379844,-1.37025,-1.08574,-0.87024
1541872386400879,-1.36256,-1.09611,-0.884218
1541872386416873,-1.35359,-1.10687,-0.898169
1541872386439891,-1.3407,-1.118,-0.913587
1541872386460928,-1.32537,-1.12895,-0.929786
1541872386476942,-1.31334,-1.13821,-0.94461
1541872386499944,-1.30461,-1.1445,-0.956923
1541872386522979,-1.29655,-1.14928,-0.967934
1541872386544979,-1.28999,-1.15261,-0.976846
1541872386559990,-1.28523,-1.15511,-0.984317
1541872386583012,-1.28071,-1.15681,-0.990375
1541872386598077,-1.27582,-1.15811,-0.996576
1541872386620050,-1.27126,-1.15864,-1.0014
1541872386643094,-1.26722,-1.15892,-1.00567
1541872386657091,-1.26502,-1.15919,-1.00885
1541872386680109,-1.26409,-1.15959,-1.01153
1541872386703131,-1.2629,-1.15932,-1.01348
1541872386717156,-1.26214,-1.1591,-1.01414
1541872386740158,-1.26188,-1.15888,-1.01483
1541872386762177,-1.26404,-1.15883,-1.01452
1541872386777184,-1.26768,-1.15773,-1.01247
1541872386800190,-1.2679,-1.15733,-1.01073
1541872386823226,-1.26661,-1.15856,-1.00994
1541872386837237,-1.26732,-1.15992,-1.00946
1541872386860258,-1.26889,-1.16078,-1.0088
1541872386882262,-1.26992,-1.161,-1.0076
1541872386897322,-1.26967,-1.16112,-1.00637
1541872386920307,-1.27058,-1.16107,-1.00479
1541872386942305,-1.27153,-1.1607,-1.0033
1541872386957337,-1.27335,-1.16041,-1.00151
1541872386980373,-1.27361,-1.16015,-0.999741
1541872387002365,-1.27159,-1.16074,-0.999937
1541872387023392,-1.27205,-1.16086,-0.999496
1541872387040407,-1.27436,-1.16029,-0.998225
1541872387062421,-1.27752,-1.159,-0.996434
1541872387083441,-1.28112,-1.1561,-0.992522
1541872387100473,-1.28948,-1.15123,-0.985338
1541872387122456,-1.30092,-1.14322,-0.976203
1541872387143491,-1.31546,-1.13132,-0.964511
1541872387160507,-1.33334,-1.11561,-0.950019
1541872387182513,-1.35079,-1.09801,-0.934727
1541872387203540,-1.36687,-1.07922,-0.919055
1541872387219554,-1.37986,-1.06018,-0.905213
1541872387248577,-1.39059,-1.04153,-0.893558
1541872387263592,-1.40072,-1.02309,-0.883101
1541872387279602,-1.40918,-1.00527,-0.874488
1541872387302618,-1.41591,-0.989274,-0.867446
1541872387323674,-1.4212,-0.974579,-0.862432
1541872387339651,-1.42494,-0.961504,-0.858599
1541872387362653,-1.4283,-0.949784,-0.855544
1541872387383688,-1.43166,-0.939399,-0.852328
1541872387399702,-1.43498,-0.92952,-0.84939
1541872387422721,-1.43805,-0.919766,-0.846244
1541872387444738,-1.44096,-0.910102,-0.842501
1541872387459750,-1.44444,-0.899478,-0.837468
1541872387482770,-1.44922,-0.887881,-0.831945
1541872387504805,-1.45423,-0.875452,-0.826095
1541872387519801,-1.46025,-0.86192,-0.819406
1541872387542820,-1.46575,-0.846803,-0.812693
1541872387564855,-1.47054,-0.8297,-0.80658
1541872387585855,-1.4751,-0.810495,-0.800561
1541872387602869,-1.47906,-0.789711,-0.795171
1541872387624881,-1.4818,-0.766972,-0.789841
1541872387645940,-1.48504,-0.741895,-0.783818
1541872387662918,-1.49136,-0.713089,-0.777397
1541872387684925,-1.49674,-0.681982,-0.772903
1541872387705953,-1.49907,-0.649925,-0.769477
1541872387722967,-1.49903,-0.619593,-0.765822
1541872387744983,-1.50027,-0.589975,-0.76093
1541872387766003,-1.50337,-0.561595,-0.756436
1541872387783014,-1.50666,-0.534101,-0.752685
1541872387805018,-1.50819,-0.508368,-0.750006
1541872387826052,-1.50955,-0.483928,-0.74724
1541872387843066,-1.51225,-0.460764,-0.743938
1541872387865065,-1.51559,-0.438301,-0.740616
1541872387886104,-1.5184,-0.4157,-0.736604
1541872387903100,-1.51961,-0.393348,-0.733185
1541872387933142,-1.52065,-0.371303,-0.729236
1541872387946152,-1.52246,-0.349269,-0.724532
1541872387963165,-1.52426,-0.326766,-0.719514
1541872387985175,-1.5255,-0.303764,-0.714328
1541872388006202,-1.52606,-0.280714,-0.709651
1541872388023206,-1.52561,-0.257907,-0.705119
1541872388045215,-1.52562,-0.235346,-0.700453
1541872388066251,-1.5259,-0.212981,-0.695646
1541872388083264,-1.52632,-0.190817,-0.691063
1541872388105263,-1.52798,-0.168596,-0.68629
1541872388126336,-1.52898,-0.146749,-0.682472
1541872388142313,-1.52951,-0.125612,-0.679099
1541872388165332,-1.53036,-0.104533,-0.675171
1541872388186350,-1.53238,-0.0833739,-0.670894
1541872388210369,-1.53458,-0.0621921,-0.66686
1541872388225366,-1.5352,-0.0416961,-0.663272
1541872388246399,-1.53467,-0.0213934,-0.659245
1541872388262403,-1.53502,-0.00107247,-0.655262
1541872388285432,-1.53667,0.0190794,-0.651297
1541872388306449,-1.53779,0.0391805,-0.64705
1541872388322462,-1.539,0.0596199,-0.642909
1541872388345480,-1.53936,0.0800683,-0.638575
1541872388367490,-1.53884,0.100665,-0.634704
1541872388382512,-1.53872,0.120947,-0.630918
1541872388405531,-1.53824,0.141039,-0.626536
1541872388427539,-1.53619,0.161232,-0.621719
1541872388442562,-1.5337,0.181457,-0.616801
1541872388465581,-1.53106,0.201259,-0.612502
1541872388487584,-1.52906,0.219964,-0.608447
1541872388508617,-1.52771,0.237224,-0.603814
1541872388525631,-1.52689,0.253531,-0.598337
1541872388547630,-1.52703,0.268687,-0.592883
1541872388568664,-1.52757,0.283225,-0.587336
1541872388585679,-1.52824,0.297067,-0.582267
1541872388607692,-1.52934,0.31094,-0.576932
1541872388628715,-1.53003,0.324058,-0.571735
1541872388645728,-1.53051,0.337258,-0.565888
1541872388667728,-1.53144,0.349648,-0.560665
1541872388688764,-1.53142,0.361655,-0.55556
1541872388705774,-1.53103,0.373974,-0.550879
1541872388735811,-1.52977,0.385584,-0.546736
1541872388748813,-1.52781,0.395943,-0.543425
1541872388765808,-1.5261,0.405251,-0.539382
1541872388787828,-1.52553,0.413993,-0.53499
1541872388808863,-1.52637,0.422135,-0.530965
1541872388824875,-1.52641,0.429685,-0.527215
1541872388830880,-1.52595,0.437635,-0.523469
1541872388852899,-1.5264,0.446116,-0.519302
1541872388875917,-1.52728,0.455036,-0.514889
1541872388890930,-1.52735,0.46508,-0.510163
1541872388912930,-1.52736,0.474877,-0.505878
1541872388935968,-1.52663,0.484332,-0.501772
1541872388950979,-1.52606,0.493647,-0.497421
1541872388973034,-1.52605,0.50251,-0.492546
1541872388996016,-1.52683,0.510217,-0.488654
1541872389011030,-1.52768,0.517514,-0.484588
1541872389033030,-1.52913,0.524935,-0.480231
1541872389056067,-1.5305,0.532418,-0.475679
1541872389071080,-1.53101,0.540372,-0.470647
1541872389093097,-1.53125,0.547481,-0.465791
1541872389116116,-1.53088,0.554177,-0.461203
1541872389131166,-1.53044,0.560229,-0.457108
1541872389153130,-1.52968,0.566518,-0.453494
1541872389176165,-1.52953,0.572412,-0.450126
1541872389191178,-1.52948,0.577657,-0.447299
1541872389213196,-1.52875,0.582882,-0.44475
1541872389231211,-1.52842,0.587804,-0.443029
1541872389251221,-1.52805,0.592685,-0.441944
1541872389273245,-1.52793,0.596659,-0.441257
1541872389290252,-1.5277,0.599707,-0.440874
1541872389311262,-1.52755,0.60171,-0.441015
1541872389333278,-1.527,0.603305,-0.440734
1541872389351290,-1.52677,0.603691,-0.440876
1541872389370326,-1.52677,0.603691,-0.440876
1541872389393343,-1.52685,0.603592,-0.440798
1541872389411343,-1.52681,0.603652,-0.440326
1541872389430375,-1.52649,0.603917,-0.439405
1541872389453394,-1.52636,0.603834,-0.438891
1541872389471408,-1.52612,0.603416,-0.43844
1541872389490459,-1.5264,0.60308,-0.437659
1541872389513443,-1.52605,0.602962,-0.436717
1541872389531459,-1.52579,0.602657,-0.435788
1541872389550473,-1.52638,0.602094,-0.435845
1541872389573476,-1.52638,0.602094,-0.435845
1541872389591508,-1.52638,0.602094,-0.435845
1541872389610523,-1.52638,0.602094,-0.435845
1541872389633542,-1.52638,0.602094,-0.435845
1541872389651552,-1.52638,0.602042,-0.435852
1541872389670573,-1.52638,0.602094,-0.435845
1541872389693592,-1.52578,0.602782,-0.435614
1541872389711617,-1.52552,0.603332,-0.43527
1541872389730623,-1.52506,0.603137,-0.435217
1541872389753676,-1.52506,0.603137,-0.435217
1541872389771656,-1.52506,0.603137,-0.435217
1541872389790706,-1.52506,0.603085,-0.435224
1541872389813726,-1.52516,0.603191,-0.435349
1541872389831702,-1.52516,0.603191,-0.435349
1541872389850721,-1.5254,0.602718,-0.435298
1541872389873740,-1.52543,0.601802,-0.435186
1541872389891736,-1.52542,0.601383,-0.435248
1541872389912768,-1.52557,0.600272,-0.435614
1541872389933786,-1.52547,0.599216,-0.436092
1541872389950803,-1.52579,0.59815,-0.436422
1541872389971821,-1.52605,0.597287,-0.436814
1541872389993820,-1.52603,0.59664,-0.437063
1541872390010891,-1.52531,0.59612,-0.437106
1541872390032867,-1.52465,0.595083,-0.437135
1541872390048884,-1.52379,0.593711,-0.437092
1541872390070901,-1.52309,0.59132,-0.437329
1541872390091914,-1.52238,0.587518,-0.438246
1541872390108933,-1.52164,0.582196,-0.439555
1541872390130943,-1.52079,0.575935,-0.440805
1541872390153972,-1.52012,0.568678,-0.442346
1541872390172987,-1.51911,0.560082,-0.444488
1541872390190983,-1.51728,0.549816,-0.447553
1541872390211999,-1.5157,0.537424,-0.45035
1541872390233036,-1.51459,0.52432,-0.452998
1541872390251041,-1.51396,0.510201,-0.45568
1541872390273051,-1.51386,0.494786,-0.459294
1541872390294083,-1.51327,0.477513,-0.463858
1541872390310098,-1.51238,0.459196,-0.468992
1541872390333119,-1.51242,0.440185,-0.47417
1541872390354171,-1.51373,0.42075,-0.479349
1541872390370146,-1.51549,0.399962,-0.485591
1541872390393170,-1.51613,0.378191,-0.492324
1541872390414220,-1.51555,0.355526,-0.4984
1541872390430187,-1.51571,0.332067,-0.503014
1541872390453217,-1.5169,0.308221,-0.506839
1541872390474235,-1.5187,0.284091,-0.510674
1541872390490231,-1.52004,0.259606,-0.515018
1541872390513286,-1.51992,0.235238,-0.518969
1541872390534319,-1.52083,0.211336,-0.52192
1541872390550278,-1.52312,0.187994,-0.525222
1541872390579321,-1.52475,0.164687,-0.529564
1541872390594333,-1.52365,0.140925,-0.535025
1541872390610327,-1.52079,0.116828,-0.540228
1541872390633365,-1.51895,0.0923784,-0.544181
1541872390654384,-1.52014,0.0682314,-0.548067
1541872390670378,-1.52231,0.0439979,-0.552921
1541872390693415,-1.52245,0.0196072,-0.558171
1541872390714433,-1.52084,-0.00407035,-0.562686
1541872390730427,-1.51818,-0.0278613,-0.566085
1541872390753500,-1.51564,-0.0516009,-0.5692
1541872390774464,-1.51275,-0.0761058,-0.572386
1541872390790477,-1.51187,-0.101755,-0.57622
1541872390813507,-1.51206,-0.128207,-0.580781
1541872390834532,-1.51119,-0.155155,-0.584812
1541872390850536,-1.51032,-0.182498,-0.588154
1541872390873545,-1.50988,-0.209422,-0.591802
1541872390894567,-1.51056,-0.235848,-0.595584
1541872390910594,-1.51197,-0.260723,-0.599307
1541872390932612,-1.51122,-0.284847,-0.603352
1541872390953626,-1.50998,-0.307879,-0.606486
1541872390970625,-1.50942,-0.331087,-0.609374
1541872390992662,-1.50856,-0.353234,-0.611314
1541872391013683,-1.50463,-0.374487,-0.613341
1541872391029673,-1.49973,-0.395487,-0.615185
1541872391052705,-1.49642,-0.416375,-0.615973
1541872391073728,-1.49605,-0.436353,-0.616329
1541872391089722,-1.49719,-0.455491,-0.617687
1541872391112751,-1.49643,-0.473102,-0.620251
1541872391133778,-1.49405,-0.490662,-0.623278
1541872391149773,-1.49251,-0.508336,-0.625803
1541872391172791,-1.49141,-0.526663,-0.628129
1541872391193828,-1.48925,-0.545141,-0.631207
1541872391209831,-1.48796,-0.564156,-0.634493
1541872391232842,-1.48681,-0.582768,-0.638451
1541872391262875,-1.48475,-0.601037,-0.643275
1541872391269872,-1.48211,-0.620156,-0.648044
1541872391292897,-1.47957,-0.63933,-0.651757
1541872391315928,-1.47772,-0.658752,-0.655898
1541872391329921,-1.47551,-0.678217,-0.660855
1541872391352939,-1.47252,-0.697764,-0.666316
1541872391375977,-1.47027,-0.717293,-0.670706
1541872391396995,-1.46926,-0.736157,-0.673895
1541872391412989,-1.4677,-0.754806,-0.677925
1541872391436027,-1.46462,-0.772403,-0.6825
1541872391457045,-1.4611,-0.788957,-0.687134
1541872391473039,-1.45924,-0.8051,-0.691206
1541872391496074,-1.45646,-0.820976,-0.695834
1541872391517088,-1.45438,-0.83674,-0.700134
1541872391533089,-1.4519,-0.85331,-0.704779
1541872391556118,-1.44836,-0.870054,-0.710576
1541872391577135,-1.44413,-0.886391,-0.717551
1541872391593157,-1.43951,-0.902475,-0.725168
1541872391616157,-1.43428,-0.918669,-0.733547
1541872391636193,-1.42799,-0.935133,-0.741904
1541872391653188,-1.42129,-0.951747,-0.750671
1541872391675258,-1.41441,-0.968522,-0.759319
1541872391696241,-1.40808,-0.985458,-0.768788
1541872391713237,-1.40146,-1.00155,-0.778169
1541872391735267,-1.3949,-1.01666,-0.7877
1541872391756292,-1.38815,-1.03052,-0.797252
1541872391773301,-1.38221,-1.04233,-0.805235
1541872391795331,-1.37647,-1.05173,-0.812418
1541872391816341,-1.37319,-1.05948,-0.81764
1541872391833354,-1.3696,-1.06608,-0.822524
1541872391855354,-1.36664,-1.07106,-0.827555
1541872391876390,-1.36521,-1.07463,-0.832012
1541872391893404,-1.3637,-1.07674,-0.837349
1541872391915403,-1.36186,-1.07732,-0.841818
1541872391936475,-1.35885,-1.07726,-0.845139
1541872391953454,-1.35575,-1.07747,-0.846925
1541872391975463,-1.35238,-1.07828,-0.848924
1541872391996489,-1.34911,-1.07842,-0.851396
1541872392013502,-1.34705,-1.0779,-0.853194
1541872392035503,-1.34556,-1.07709,-0.854707
1541872392056574,-1.34464,-1.07592,-0.856083
1541872392073588,-1.34345,-1.07485,-0.85737
1541872392095551,-1.34163,-1.0739,-0.858894
1541872392116588,-1.34025,-1.07291,-0.860428
1541872392133639,-1.33836,-1.07226,-0.861138
1541872392155601,-1.33625,-1.07262,-0.862263
1541872392178633,-1.3344,-1.07428,-0.863594
1541872392193645,-1.33221,-1.07677,-0.865947
1541872392215658,-1.33074,-1.07958,-0.868397
1541872392245676,-1.32858,-1.08267,-0.870718
1541872392253727,-1.32612,-1.08588,-0.873
1541872392275710,-1.32384,-1.08882,-0.874624
1541872392298726,-1.32148,-1.09207,-0.876205
1541872392312749,-1.32052,-1.09526,-0.87733
1541872392335769,-1.31933,-1.09834,-0.877721
1541872392357770,-1.31831,-1.10086,-0.877761
1541872392372799,-1.3178,-1.10275,-0.876994
1541872392395817,-1.31804,-1.10395,-0.875964
1541872392417871,-1.3201,-1.10472,-0.875516
1541872392432848,-1.32438,-1.10422,-0.874071
1541872392455867,-1.33301,-1.10221,-0.870532
1541872392477876,-1.34391,-1.09711,-0.86525
1541872392498886,-1.35399,-1.08875,-0.85944
1541872392515934,-1.36686,-1.07706,-0.851251
1541872392537926,-1.38034,-1.06126,-0.842089
1541872392558989,-1.39452,-1.04277,-0.831457
1541872392575984,-1.41015,-1.02267,-0.819584
1541872392597976,-1.42806,-1.00221,-0.805672
1541872392619002,-1.44433,-0.980248,-0.793482
1541872392636016,-1.45737,-0.956645,-0.782505
1541872392658024,-1.46589,-0.930617,-0.774128
1541872392679051,-1.47238,-0.902952,-0.767138
1541872392695050,-1.47804,-0.874096,-0.76141
1541872392718063,-1.48229,-0.844463,-0.757003
1541872392739100,-1.48661,-0.814089,-0.752408
1541872392756116,-1.49082,-0.783236,-0.746901
1541872392778114,-1.49648,-0.751727,-0.740753
1541872392801153,-1.49988,-0.720212,-0.735827
1541872392816165,-1.50077,-0.688842,-0.732102
1541872392839183,-1.50486,-0.657474,-0.726043
1541872392859200,-1.51298,-0.625635,-0.717932
1541872392875213,-1.52193,-0.593879,-0.711181
1541872392898221,-1.52765,-0.561941,-0.706457
1541872392919249,-1.53062,-0.530266,-0.7027
1541872392935263,-1.53406,-0.499191,-0.698591
1541872392958266,-1.53716,-0.468327,-0.694173
1541872392979298,-1.53934,-0.438203,-0.688756
1541872392995329,-1.54069,-0.409689,-0.682933
1541872393018320,-1.54288,-0.381771,-0.676449
1541872393039384,-1.54438,-0.354872,-0.670452
1541872393055381,-1.5454,-0.328595,-0.664456
1541872393078381,-1.54634,-0.302384,-0.658116
1541872393100440,-1.54735,-0.277216,-0.651244
1541872393115412,-1.54819,-0.253128,-0.644882
1541872393138411,-1.54946,-0.229523,-0.638578
1541872393160441,-1.55125,-0.206815,-0.633242
1541872393175461,-1.55151,-0.183436,-0.628024
1541872393198497,-1.5511,-0.159147,-0.622246
1541872393220511,-1.55072,-0.134038,-0.6158
1541872393242516,-1.55048,-0.108765,-0.609006
1541872393244513,-1.54982,-0.0835419,-0.602052
1541872393263568,-1.54948,-0.0584079,-0.595091
1541872393286553,-1.55001,-0.0328457,-0.58896
1541872393304567,-1.55076,-0.00705442,-0.582753
1541872393323582,-1.55137,0.0185277,-0.576827
1541872393346602,-1.55185,0.0429222,-0.572318
1541872393362597,-1.55193,0.0665061,-0.568955
1541872393383631,-1.551,0.0894553,-0.564734
1541872393406650,-1.54941,0.114286,-0.558188
1541872393422645,-1.54874,0.14067,-0.55024
1541872393443682,-1.54897,0.166964,-0.54156
1541872393466697,-1.55018,0.192801,-0.532226
1541872393482715,-1.55058,0.216395,-0.522604
1541872393503732,-1.54922,0.238336,-0.513901
1541872393526740,-1.54805,0.258093,-0.506271
1541872393543763,-1.5471,0.275434,-0.499162
1541872393566783,-1.54691,0.292146,-0.491896
1541872393585798,-1.54713,0.307665,-0.485393
1541872393602804,-1.54736,0.321272,-0.480302
1541872393623830,-1.54699,0.333745,-0.476093
1541872393645848,-1.5472,0.345902,-0.471444
1541872393662862,-1.54937,0.356788,-0.467743
1541872393683879,-1.55089,0.366815,-0.464111
1541872393705897,-1.55093,0.377447,-0.459517
1541872393722911,-1.55101,0.387998,-0.454666
1541872393743929,-1.55106,0.398277,-0.449081
1541872393765947,-1.55106,0.408968,-0.442602
1541872393782978,-1.55143,0.418238,-0.437146
1541872393803978,-1.55078,0.42727,-0.431923
1541872393825996,-1.55066,0.436113,-0.42698
1541872393843010,-1.55056,0.444239,-0.42229
1541872393864023,-1.55098,0.451811,-0.418601
1541872393886045,-1.5514,0.459534,-0.414744
1541872393903059,-1.5522,0.466748,-0.411049
1541872393924078,-1.55318,0.473048,-0.408725
1541872393946095,-1.55339,0.479831,-0.40606
1541872393963109,-1.5542,0.486744,-0.403467
1541872393984127,-1.55488,0.493327,-0.400464
1541872394006144,-1.55542,0.498622,-0.397199
1541872394024150,-1.55605,0.503791,-0.393946
1541872394044176,-1.55732,0.508812,-0.390672
1541872394066194,-1.55824,0.513582,-0.386854
1541872394084210,-1.55927,0.518347,-0.382512
1541872394104220,-1.55978,0.523034,-0.377404
1541872394126246,-1.5603,0.527443,-0.37183
1541872394144259,-1.56128,0.531214,-0.366724
1541872394164267,-1.56173,0.535199,-0.361387
1541872394187294,-1.56191,0.539506,-0.355898
1541872394201302,-1.56218,0.54351,-0.350587
1541872394224322,-1.56182,0.547351,-0.345112
1541872394241339,-1.56157,0.550065,-0.34061
1541872394264358,-1.56105,0.551942,-0.336724
1541872394283373,-1.56107,0.553412,-0.3337
1541872394301368,-1.56052,0.555141,-0.331084
1541872394324407,-1.56071,0.556564,-0.329285
1541872394343423,-1.56079,0.558084,-0.32799
1541872394361420,-1.56102,0.559878,-0.327512
1541872394384456,-1.56079,0.561784,-0.327513
1541872394403473,-1.56092,0.562994,-0.328608
1541872394421473,-1.56086,0.56443,-0.32984
1541872394444506,-1.561,0.565834,-0.331126
1541872394463521,-1.56186,0.567437,-0.332718
1541872394481530,-1.56254,0.569129,-0.33455
1541872394504546,-1.56341,0.571117,-0.33653
1541872394523571,-1.56392,0.573726,-0.33781
1541872394541567,-1.56426,0.576261,-0.338393
1541872394564605,-1.5647,0.578698,-0.338536
1541872394583656,-1.56496,0.580887,-0.338459
1541872394601617,-1.56485,0.583236,-0.338184
1541872394624655,-1.56456,0.585851,-0.337665
1541872394645672,-1.56446,0.588094,-0.336739
1541872394660665,-1.56427,0.589477,-0.335731
1541872394683721,-1.5639,0.590154,-0.335378
1541872394704723,-1.56418,0.590048,-0.336101
1541872394726739,-1.5639,0.590336,-0.337129
1541872394743753,-1.56399,0.590365,-0.338076
1541872394764772,-1.56399,0.590365,-0.338076
1541872394780763,-1.56399,0.590318,-0.338089
1541872394803838,-1.56446,0.590733,-0.338334
1541872394824854,-1.5652,0.591727,-0.338233
1541872394840812,-1.56566,0.593541,-0.337451
1541872394863851,-1.56593,0.59515,-0.336434
1541872394884868,-1.56593,0.597109,-0.334872
1541872394900863,-1.56592,0.599348,-0.332978
1541872394923937,-1.56592,0.602826,-0.331039
1541872394944919,-1.56508,0.607199,-0.329056
1541872394959926,-1.56323,0.613476,-0.32787
1541872394980947,-1.56184,0.61751,-0.326889
1541872395003967,-1.56101,0.620261,-0.326491
1541872395019971,-1.56027,0.622018,-0.326154
1541872395042999,-1.56019,0.622932,-0.326616
1541872395064016,-1.56002,0.622598,-0.32729
1541872395080014,-1.56031,0.621873,-0.328267
1541872395103048,-1.56068,0.621051,-0.328795
1541872395126049,-1.56068,0.621002,-0.32881
1541872395140062,-1.56096,0.62074,-0.328961
1541872395163099,-1.56068,0.62048,-0.328961
1541872395186116,-1.56078,0.620585,-0.329081
1541872395200123,-1.56078,0.620304,-0.329351
1541872395223148,-1.56041,0.620379,-0.329605
1541872395246166,-1.56033,0.620151,-0.330399
1541872395260161,-1.56043,0.619274,-0.331495
1541872395283178,-1.56063,0.618177,-0.333055
1541872395306217,-1.56055,0.616867,-0.334539
1541872395320224,-1.56094,0.615364,-0.336517
1541872395343243,-1.56096,0.613931,-0.338374
1541872395366286,-1.56125,0.611562,-0.340198
1541872395380258,-1.56152,0.609327,-0.341543
1541872395403277,-1.56142,0.607336,-0.342154
1541872395426310,-1.56151,0.605973,-0.342572
1541872395440307,-1.56169,0.604714,-0.343109
1541872395463328,-1.56158,0.604081,-0.342766
1541872395486359,-1.56157,0.604004,-0.341661
1541872395507381,-1.56174,0.604173,-0.340345
1541872395523382,-1.56173,0.6051,-0.339388
1541872395546414,-1.56173,0.60627,-0.338612
1541872395567466,-1.56164,0.608332,-0.33749
1541872395583432,-1.56164,0.610834,-0.336517
1541872395606498,-1.56138,0.613902,-0.335933
1541872395627516,-1.56103,0.616775,-0.335318
1541872395643474,-1.5605,0.619413,-0.335287
1541872395666512,-1.56017,0.621318,-0.336021
1541872395687530,-1.56002,0.622334,-0.336938
1541872395704536,-1.56014,0.622227,-0.338065
1541872395726556,-1.56024,0.620643,-0.33949
1541872395747581,-1.56025,0.61863,-0.341138
1541872395763574,-1.55987,0.615933,-0.343009
1541872395786608,-1.55959,0.613056,-0.344895
1541872395807629,-1.55867,0.610704,-0.346335
1541872395823633,-1.55813,0.608973,-0.348453
1541872395851665,-1.55743,0.60744,-0.351095
1541872395866677,-1.55638,0.604692,-0.354875
1541872395882684,-1.5546,0.599785,-0.360048
1541872395905708,-1.55271,0.591234,-0.365956
1541872395926726,-1.54993,0.580258,-0.37232
1541872395942720,-1.54647,0.56578,-0.379174
1541872395965742,-1.54214,0.547964,-0.386899
1541872395988761,-1.53763,0.527051,-0.395632
1541872396002770,-1.53425,0.501293,-0.40532
1541872396025791,-1.52988,0.473516,-0.413626
1541872396048845,-1.52736,0.444396,-0.422021
1541872396062821,-1.52929,0.411923,-0.431725
1541872396085844,-1.53228,0.374923,-0.442511
1541872396108877,-1.53345,0.335068,-0.452379
1541872396129895,-1.5341,0.29747,-0.461214
1541872396145898,-1.53652,0.260075,-0.469924
1541872396168944,-1.54039,0.222718,-0.479728
1541872396189944,-1.54385,0.184628,-0.491109
1541872396205937,-1.54717,0.147977,-0.499469
1541872396228977,-1.55054,0.114401,-0.504667
1541872396248992,-1.55295,0.0827192,-0.510994
1541872396265987,-1.55214,0.0516879,-0.519755
1541872396289027,-1.54796,0.0204097,-0.529686
1541872396310044,-1.54536,-0.0111932,-0.535246
1541872396326037,-1.54717,-0.0417639,-0.537664
1541872396349073,-1.55141,-0.0737309,-0.542448
1541872396370073,-1.55145,-0.106079,-0.550342
1541872396386087,-1.54729,-0.137981,-0.55876
1541872396409117,-1.54387,-0.16992,-0.564428
1541872396430133,-1.54404,-0.201471,-0.568565
1541872396446136,-1.54488,-0.232797,-0.574024
1541872396469155,-1.54362,-0.264443,-0.580795
1541872396490178,-1.53935,-0.296553,-0.588505
1541872396506204,-1.53521,-0.331951,-0.59357
1541872396528213,-1.5321,-0.367765,-0.597805
1541872396550222,-1.52893,-0.404099,-0.603138
1541872396566250,-1.52377,-0.441086,-0.610307
1541872396588274,-1.517,-0.477782,-0.616794
1541872396609290,-1.51176,-0.513816,-0.622019
1541872396626306,-1.50912,-0.549752,-0.626687
1541872396648322,-1.50766,-0.584161,-0.632025
1541872396669339,-1.50484,-0.616598,-0.637676
1541872396685335,-1.50028,-0.648135,-0.644699
1541872396708368,-1.49598,-0.67919,-0.651184
1541872396729389,-1.49275,-0.709353,-0.657216
1541872396745383,-1.49003,-0.738715,-0.662965
1541872396768417,-1.48529,-0.76733,-0.669494
1541872396789439,-1.47946,-0.79421,-0.67681
1541872396805442,-1.47264,-0.81905,-0.684742
1541872396828460,-1.46881,-0.8417,-0.691082
1541872396849483,-1.46402,-0.861968,-0.697503
1541872396872541,-1.45948,-0.879858,-0.704341
1541872396888500,-1.45373,-0.895553,-0.711691
1541872396911539,-1.44642,-0.909801,-0.720122
1541872396925531,-1.43935,-0.923417,-0.727857
1541872396948549,-1.43241,-0.936281,-0.73526
1541872396971589,-1.42717,-0.948447,-0.741754
1541872396985599,-1.42107,-0.960233,-0.748649
1541872397008609,-1.41357,-0.972807,-0.755969
1541872397031637,-1.40491,-0.988795,-0.764642
1541872397052655,-1.39511,-1.00734,-0.776283
1541872397068660,-1.38499,-1.02615,-0.787648
1541872397092687,-1.37383,-1.04474,-0.799375
1541872397112705,-1.36146,-1.06293,-0.811395
1541872397128699,-1.3481,-1.08127,-0.825317
1541872397150717,-1.33655,-1.09825,-0.839667
1541872397172781,-1.32502,-1.11329,-0.852864
1541872397188749,-1.31306,-1.1266,-0.865139
1541872397210784,-1.30267,-1.13705,-0.875065
1541872397231803,-1.29584,-1.14528,-0.883132
1541872397248819,-1.28993,-1.15081,-0.889908
1541872397270880,-1.28541,-1.1541,-0.895002
1541872397291852,-1.2844,-1.15489,-0.896436
1541872397308866,-1.28558,-1.15331,-0.897063
1541872397330882,-1.28933,-1.14997,-0.89549
1541872397345896,-1.29575,-1.14429,-0.892151
1541872397368915,-1.30211,-1.13816,-0.888217
1541872397390931,-1.30901,-1.13168,-0.883491
1541872397411951,-1.31648,-1.12426,-0.878017
1541872397428964,-1.32663,-1.11574,-0.87044
1541872397450979,-1.34001,-1.10514,-0.860377
1541872397472036,-1.35853,-1.09142,-0.845731
1541872397489015,-1.37859,-1.0736,-0.829745
1541872397511026,-1.39609,-1.05272,-0.81382
1541872397532050,-1.41138,-1.03048,-0.797712
1541872397549064,-1.42591,-1.0079,-0.782563
1541872397571079,-1.43921,-0.985244,-0.769407
1541872397592099,-1.45299,-0.963137,-0.757441
1541872397608094,-1.46733,-0.940713,-0.745309
1541872397616115,-1.48078,-0.916767,-0.734645
1541872397637132,-1.49193,-0.891966,-0.724224
1541872397659190,-1.50075,-0.865348,-0.715207
1541872397674167,-1.5073,-0.83719,-0.706305
1541872397696184,-1.51405,-0.807448,-0.697164
1541872397719204,-1.52123,-0.775902,-0.688366
1541872397734217,-1.52709,-0.742388,-0.679962
1541872397756235,-1.53117,-0.708323,-0.671807
1541872397779290,-1.53422,-0.673737,-0.66451
1541872397794266,-1.53656,-0.63923,-0.658355
1541872397816265,-1.53954,-0.604124,-0.651857
1541872397839303,-1.54166,-0.569227,-0.645584
1541872397854316,-1.54381,-0.534424,-0.639732
1541872397876334,-1.54538,-0.49968,-0.633955
1541872397899353,-1.54719,-0.464872,-0.628206
1541872397914365,-1.54912,-0.430162,-0.623367
1541872397936384,-1.55092,-0.395437,-0.618605
1541872397959402,-1.55213,-0.36076,-0.613236
1541872397974414,-1.553,-0.325952,-0.607644
1541872397996433,-1.55216,-0.292072,-0.602621
1541872398019451,-1.55069,-0.258756,-0.597477
1541872398034464,-1.54831,-0.225768,-0.591339
1541872398056462,-1.54478,-0.192089,-0.585002
1541872398079501,-1.54057,-0.158102,-0.579027
1541872398097516,-1.53772,-0.125164,-0.572538
1541872398116531,-1.5364,-0.0926167,-0.566057
1541872398139550,-1.53596,-0.0604903,-0.559961
1541872398154546,-1.53662,-0.0276267,-0.554024
1541872398176616,-1.53722,0.00549233,-0.54891
1541872398199637,-1.53716,0.0386722,-0.543885
1541872398214613,-1.53611,0.0719568,-0.5371
1541872398236613,-1.53474,0.104536,-0.530049
1541872398259692,-1.53361,0.136434,-0.521856
1541872398274663,-1.53265,0.167306,-0.512865
1541872398296680,-1.53135,0.196846,-0.50258
1541872398319697,-1.52984,0.225056,-0.492585
1541872398334704,-1.52739,0.252639,-0.482058
1541872398356730,-1.52432,0.278704,-0.47143
1541872398379745,-1.52066,0.302979,-0.459769
1541872398394758,-1.51803,0.324806,-0.44766
1541872398416779,-1.51628,0.344483,-0.435017
1541872398434774,-1.51404,0.362905,-0.422701
1541872398455803,-1.51104,0.380031,-0.410559
1541872398477854,-1.50725,0.396197,-0.398566
1541872398494832,-1.50483,0.412169,-0.386881
1541872398515863,-1.50279,0.429897,-0.374434
1541872398536877,-1.50079,0.449709,-0.362237
1541872398554910,-1.4991,0.469944,-0.35125
1541872398575910,-1.49609,0.490962,-0.339898
1541872398596927,-1.49195,0.51307,-0.327558
1541872398614943,-1.48795,0.535498,-0.313961
1541872398635959,-1.48372,0.557802,-0.300355
1541872398656977,-1.47812,0.579484,-0.286864
1541872398674987,-1.47079,0.601416,-0.273036
1541872398702014,-1.46378,0.622691,-0.258676
1541872398717025,-1.45711,0.643669,-0.244297
1541872398735041,-1.45028,0.664785,-0.229534
1541872398756058,-1.44392,0.684572,-0.21526
1541872398777059,-1.43713,0.703237,-0.201964
1541872398795126,-1.43069,0.720658,-0.189182
1541872398817090,-1.42517,0.73745,-0.176146
1541872398837125,-1.4212,0.754308,-0.164006
1541872398855141,-1.41626,0.770779,-0.15166
1541872398877154,-1.41026,0.786431,-0.139348
1541872398897175,-1.40544,0.800556,-0.12703
1541872398915185,-1.40022,0.813395,-0.1155
1541872398937188,-1.39399,0.825862,-0.103696
1541872398957224,-1.38734,0.837605,-0.0914024
1541872398975230,-1.38169,0.848309,-0.0797392
1541872398997238,-1.37814,0.857897,-0.0695677
1541872399017274,-1.37496,0.867041,-0.0598457
1541872399035272,-1.37216,0.876714,-0.0512928
1541872399057308,-1.37183,0.885819,-0.0451556
1541872399077323,-1.37131,0.895239,-0.0394226
1541872399094338,-1.37067,0.904747,-0.0330702
1541872399116336,-1.37027,0.913598,-0.0263525
1541872399137374,-1.36917,0.92227,-0.0201578
1541872399154391,-1.3677,0.930539,-0.0136099
1541872399176386,-1.36698,0.937901,-0.00682718
1541872399197422,-1.36492,0.945348,0.00186008
1541872399214417,-1.36277,0.952888,0.0122319
1541872399236436,-1.36055,0.959492,0.0221915
1541872399257472,-1.35704,0.965837,0.0330028
1541872399274468,-1.35218,0.972224,0.0450648
1541872399296499,-1.34765,0.97799,0.0573386
1541872399317521,-1.34158,0.983452,0.0712525
1541872399333534,-1.33465,0.988634,0.0851851
1541872399356552,-1.32932,0.993136,0.0967765
1541872399377570,-1.3239,0.997419,0.108422
1541872399393579,-1.3198,1.00082,0.117788
1541872399416598,-1.3169,1.00364,0.125507
1541872399437620,-1.3147,1.00632,0.132423
1541872399453624,-1.31305,1.00831,0.138146
1541872399476652,-1.31052,1.00962,0.143551
1541872399497652,-1.30815,1.01069,0.148988
1541872399513682,-1.30626,1.01171,0.153424
1541872399536703,-1.30484,1.01306,0.157126
1541872399557719,-1.30386,1.01452,0.160482
1541872399573715,-1.30275,1.01641,0.162506
1541872399596751,-1.30206,1.01851,0.163873
1541872399617768,-1.30252,1.02013,0.164132
1541872399633772,-1.30238,1.02211,0.165009
1541872399656801,-1.30198,1.02447,0.166329
1541872399677817,-1.30174,1.02708,0.167637
1541872399693814,-1.3003,1.02942,0.169138
1541872399716851,-1.29816,1.03176,0.171761
1541872399739872,-1.29623,1.03351,0.174812
1541872399753860,-1.29383,1.03667,0.178447
1541872399776883,-1.28997,1.04068,0.183257
1541872399798909,-1.28585,1.04523,0.18788
1541872399813921,-1.28057,1.05006,0.192984
1541872399836993,-1.27499,1.05466,0.198478
1541872399858959,-1.27031,1.05879,0.203014
1541872399872962,-1.26697,1.0622,0.205958
1541872399897033,-1.26495,1.06479,0.206945
1541872399919000,-1.26334,1.06682,0.207365
1541872399933029,-1.26274,1.06776,0.207006
1541872399957045,-1.26443,1.06798,0.204821
1541872399979066,-1.26599,1.06763,0.202415
1541872399993058,-1.268,1.06663,0.199975
1541872400016096,-1.2709,1.06557,0.197071
1541872400039116,-1.27324,1.06442,0.194676
1541872400053124,-1.27533,1.06393,0.1933
1541872400076145,-1.27698,1.06345,0.192231
1541872400099150,-1.27751,1.06385,0.192185
1541872400113158,-1.27749,1.06466,0.192808
1541872400144201,-1.2769,1.06513,0.193815
1541872400159208,-1.27648,1.06553,0.194837
1541872400173206,-1.2764,1.06598,0.195258
1541872400196232,-1.27599,1.06681,0.195945
1541872400219264,-1.27656,1.06724,0.195248
1541872400240281,-1.27711,1.06745,0.194258
1541872400256276,-1.27805,1.0676,0.193387
1541872400279304,-1.27867,1.06776,0.192288
1541872400300326,-1.27964,1.06787,0.190901
1541872400316338,-1.28086,1.06772,0.189221
1541872400339365,-1.28276,1.06788,0.187277
1541872400360415,-1.28437,1.06781,0.185222
1541872400376376,-1.28621,1.06812,0.183066
1541872400399416,-1.28894,1.06828,0.180577
1541872400420464,-1.29079,1.06849,0.178735
1541872400436433,-1.29223,1.06879,0.177284
1541872400459461,-1.29388,1.06881,0.175319
1541872400480480,-1.29545,1.0686,0.173356
1541872400496483,-1.29723,1.06805,0.171021
1541872400519511,-1.29944,1.06691,0.168551
1541872400540529,-1.30214,1.06599,0.165381
1541872400556526,-1.30462,1.06472,0.161689
1541872400579561,-1.30754,1.06302,0.15651
1541872400600579,-1.30974,1.06149,0.151373
1541872400616572,-1.31242,1.05979,0.145271
1541872400639603,-1.31704,1.05765,0.136725
1541872400661628,-1.32147,1.0558,0.126938
1541872400675643,-1.32648,1.054,0.116216
1541872400698659,-1.33262,1.05127,0.103434
1541872400721659,-1.34139,1.047,0.0876336
1541872400735672,-1.35208,1.04257,0.070566
1541872400758708,-1.36107,1.03801,0.0554136
1541872400781708,-1.3678,1.03327,0.0427945
1541872400795737,-1.37381,1.02771,0.0307895
1541872400818755,-1.38033,1.02078,0.0186499
1541872400841777,-1.38605,1.01308,0.00658549
1541872400862794,-1.3913,1.00501,-0.00535495
1541872400878824,-1.39701,0.996703,-0.0181443
1541872400901822,-1.40336,0.988332,-0.0315008
1541872400922880,-1.41022,0.978519,-0.0462329
1541872400938853,-1.41839,0.967392,-0.0629855
1541872400961878,-1.42555,0.956588,-0.0787072
1541872400982892,-1.43264,0.944973,-0.0944937
1541872400998899,-1.43996,0.932071,-0.111049
1541872401021926,-1.44495,0.918876,-0.127308
1541872401042978,-1.451,0.904279,-0.144655
1541872401058946,-1.45712,0.887197,-0.161603
1541872401081975,-1.46485,0.867535,-0.179172
1541872401103028,-1.47226,0.845884,-0.196194
1541872401125010,-1.47654,0.825304,-0.211698
1541872401142024,-1.47865,0.804098,-0.225003
1541872401163041,-1.48296,0.779273,-0.237919
1541872401179036,-1.48927,0.751365,-0.251907
1541872401202075,-1.49472,0.722678,-0.265923
1541872401223126,-1.49958,0.695035,-0.279066
1541872401239085,-1.50408,0.667928,-0.291231
1541872401262123,-1.50889,0.639453,-0.303829
1541872401283141,-1.51399,0.609409,-0.316148
1541872401299135,-1.51884,0.579202,-0.327846
1541872401322153,-1.52279,0.548835,-0.338929
1541872401343190,-1.52651,0.516441,-0.349503
1541872401359186,-1.52915,0.480996,-0.358285
1541872401381258,-1.53041,0.446101,-0.364375
1541872401402234,-1.53141,0.410975,-0.370436
1541872401425258,-1.53216,0.375668,-0.376844
1541872401441307,-1.53619,0.338346,-0.385344
1541872401462288,-1.54237,0.300487,-0.394097
1541872401478291,-1.54655,0.264257,-0.400614
1541872401501358,-1.54995,0.22978,-0.406493
1541872401522337,-1.55261,0.19513,-0.413345
1541872401538341,-1.55607,0.159728,-0.421251
1541872401561361,-1.5592,0.125538,-0.427185
1541872401582388,-1.56242,0.0921959,-0.432441
1541872401598380,-1.56449,0.0617309,-0.438389
1541872401621410,-1.56722,0.032589,-0.44589
1541872401644441,-1.57025,0.00409466,-0.45136
1541872401658431,-1.57276,-0.0241923,-0.454669
1541872401681452,-1.57383,-0.0532656,-0.457843
1541872401704488,-1.5738,-0.0829343,-0.462466
1541872401718480,-1.57247,-0.11253,-0.467989
1541872401741505,-1.57156,-0.142711,-0.472864
1541872401764533,-1.57116,-0.173313,-0.475792
1541872401785590,-1.56938,-0.205439,-0.479405
1541872401801558,-1.56773,-0.237908,-0.484053
1541872401824587,-1.56717,-0.270125,-0.489591
1541872401845604,-1.56621,-0.301697,-0.49436
1541872401861597,-1.5645,-0.333953,-0.49774
1541872401884637,-1.56182,-0.367347,-0.501195
1541872401905653,-1.55997,-0.400529,-0.504597
1541872401921647,-1.56058,-0.432704,-0.508676
1541872401944719,-1.56073,-0.463474,-0.513257
1541872401965703,-1.56145,-0.494184,-0.516524
1541872401981698,-1.56282,-0.525114,-0.518196
1541872402004770,-1.56351,-0.555702,-0.519554
1541872402009740,-1.56263,-0.586427,-0.522581
1541872402031793,-1.56148,-0.616486,-0.526591
1541872402046771,-1.56276,-0.6451,-0.529335
1541872402069788,-1.56381,-0.673551,-0.532357
1541872402091807,-1.56249,-0.70195,-0.535832
1541872402106819,-1.56177,-0.730694,-0.539302
1541872402129874,-1.56017,-0.760853,-0.54386
1541872402151856,-1.55763,-0.791562,-0.550225
1541872402166869,-1.5527,-0.822981,-0.558714
1541872402189888,-1.54512,-0.854383,-0.569127
1541872402211905,-1.53677,-0.885109,-0.580607
1541872402226918,-1.52866,-0.914497,-0.592694
1541872402249938,-1.52061,-0.941156,-0.604756
1541872402271955,-1.51153,-0.965428,-0.617474
1541872402286968,-1.50371,-0.986603,-0.629446
1541872402309987,-1.49667,-1.00331,-0.640601
1541872402328001,-1.49066,-1.01632,-0.650771
1541872402347016,-1.48328,-1.0293,-0.660936
1541872402370035,-1.47453,-1.04312,-0.672498
1541872402388051,-1.46441,-1.05645,-0.685893
1541872402407062,-1.45344,-1.06834,-0.70017
1541872402437091,-1.44175,-1.07825,-0.713995
1541872402448092,-1.42991,-1.08692,-0.726892
1541872402467116,-1.42197,-1.09323,-0.737796
1541872402497141,-1.41756,-1.09683,-0.746256
1541872402508134,-1.41399,-1.09982,-0.75371
1541872402527161,-1.41277,-1.1011,-0.759258
1541872402550175,-1.41216,-1.1016,-0.76417
1541872402567199,-1.41404,-1.10048,-0.76732
1541872402587216,-1.41553,-1.09805,-0.76951
1541872402610221,-1.41582,-1.09637,-0.770874
1541872402627248,-1.41802,-1.09505,-0.771451
1541872402647264,-1.42115,-1.09259,-0.771827
1541872402669283,-1.42252,-1.0905,-0.77229
1541872402687289,-1.42276,-1.08915,-0.772356
1541872402707309,-1.42333,-1.08788,-0.771582
1541872402729332,-1.4236,-1.08601,-0.769144
1541872402747344,-1.42031,-1.0854,-0.76553
1541872402767363,-1.4202,-1.08526,-0.760314
1541872402789382,-1.42537,-1.08372,-0.754674
1541872402807377,-1.43514,-1.07975,-0.747715
1541872402827414,-1.44607,-1.07412,-0.739449
1541872402849431,-1.4577,-1.0653,-0.728924
1541872402867428,-1.47362,-1.05357,-0.715617
1541872402887465,-1.49415,-1.03721,-0.700073
1541872402909481,-1.51475,-1.01694,-0.684579
1541872402927475,-1.53173,-0.994059,-0.669149
1541872402947511,-1.54489,-0.969879,-0.655261
1541872402969513,-1.55478,-0.943941,-0.643206
1541872402987540,-1.56053,-0.916279,-0.633567
1541872403007561,-1.56489,-0.887363,-0.625361
1541872403029574,-1.57151,-0.855424,-0.615506
1541872403053595,-1.5772,-0.821267,-0.605773
1541872403067611,-1.58094,-0.785665,-0.597382
1541872403089629,-1.58433,-0.748354,-0.58961
1541872403107625,-1.58759,-0.710358,-0.58309
1541872403127660,-1.59152,-0.671805,-0.576958
1541872403149714,-1.59468,-0.632089,-0.570618
1541872403167693,-1.59756,-0.591344,-0.564612
1541872403188702,-1.60047,-0.549383,-0.559197
1541872403209728,-1.60253,-0.506335,-0.554397
1541872403227742,-1.60559,-0.461747,-0.548364
1541872403248761,-1.60749,-0.416178,-0.541956
1541872403269777,-1.60798,-0.369788,-0.535906
1541872403287793,-1.60898,-0.322584,-0.528916
1541872403308806,-1.61006,-0.276046,-0.522132
1541872403329827,-1.61079,-0.230767,-0.514834
1541872403347841,-1.61039,-0.18538,-0.50727
1541872403368859,-1.6097,-0.141174,-0.500029
1541872403389912,-1.6085,-0.0989901,-0.493004
1541872403407876,-1.60676,-0.0580169,-0.485849
1541872403428908,-1.60436,-0.0186503,-0.477136
1541872403450916,-1.6005,0.0190998,-0.467147
1541872403466927,-1.596,0.0554039,-0.455836
1541872403488958,-1.59072,0.0879393,-0.443955
1541872403509977,-1.58421,0.118211,-0.431455
1541872403526989,-1.57882,0.146843,-0.418719
1541872403548991,-1.5759,0.174561,-0.405959
1541872403570024,-1.57598,0.202027,-0.394262
1541872403587038,-1.57516,0.22986,-0.383418
1541872403609091,-1.57051,0.258479,-0.372391
1541872403630074,-1.5665,0.287431,-0.360315
1541872403647088,-1.5652,0.316011,-0.347519
1541872403669107,-1.56281,0.344337,-0.334963
1541872403690124,-1.55742,0.371633,-0.321859
1541872403707137,-1.55224,0.398155,-0.309353
1541872403729139,-1.54818,0.424278,-0.296764
1541872403750174,-1.54511,0.450103,-0.284635
1541872403767187,-1.54247,0.475734,-0.273231
1541872403789190,-1.53815,0.500502,-0.26301
1541872403810223,-1.53288,0.524551,-0.252135
1541872403827237,-1.52845,0.548392,-0.241312
1541872403849240,-1.52396,0.570723,-0.23035
1541872403870271,-1.5194,0.592128,-0.220037
1541872403887286,-1.5148,0.612347,-0.210286
1541872403909295,-1.50893,0.632547,-0.20035
1541872403930321,-1.50284,0.653217,-0.190659
1541872403947336,-1.49777,0.673747,-0.181423
1541872403969349,-1.49321,0.693276,-0.172313
1541872403990378,-1.48733,0.711221,-0.162813
1541872404007385,-1.48196,0.727814,-0.153435
1541872404029394,-1.47773,0.744093,-0.144603
1541872404050421,-1.47476,0.759212,-0.136607
1541872404067429,-1.47147,0.7729,-0.129637
1541872404089434,-1.46845,0.784553,-0.122512
1541872404110470,-1.46561,0.795381,-0.114287
1541872404127471,-1.46459,0.805126,-0.106493
1541872404149483,-1.46303,0.814532,-0.0986455
1541872404170520,-1.46104,0.823506,-0.0906777
1541872404186532,-1.45766,0.831707,-0.0823686
1541872404209551,-1.454,0.839388,-0.0732441
1541872404230603,-1.44947,0.846444,-0.0625265
1541872404246583,-1.44595,0.852723,-0.0520608
1541872404269583,-1.44184,0.858823,-0.0412786
1541872404290618,-1.43843,0.865212,-0.0306288
1541872404306613,-1.43513,0.871769,-0.0201726
1541872404329650,-1.43177,0.878596,-0.00934324
1541872404350702,-1.42915,0.884659,0.000318105
1541872404366681,-1.42578,0.890747,0.0108068
1541872404389701,-1.42252,0.8973,0.0214191
1541872404411710,-1.41791,0.903731,0.0328195
1541872404426730,-1.41239,0.910286,0.0446885
1541872404456736,-1.40797,0.91605,0.0557759
1541872404471750,-1.4028,0.921207,0.0659817
1541872404486780,-1.39881,0.925942,0.0740867
1541872404509799,-1.39475,0.930331,0.081242
1541872404531800,-1.39253,0.933816,0.0867788
1541872404552870,-1.3914,0.936485,0.09015
1541872404569849,-1.39028,0.939507,0.0926836
1541872404591857,-1.38956,0.942278,0.0940866
1541872404606870,-1.38874,0.944712,0.0951424
1541872404629899,-1.38813,0.946714,0.0949489
1541872404651897,-1.38832,0.948551,0.0949408
1541872404666914,-1.3882,0.949883,0.0947197
1541872404689948,-1.38851,0.951675,0.094381
1541872404711956,-1.38864,0.953042,0.0944801
1541872404725978,-1.38916,0.954249,0.0947883
1541872404749999,-1.38945,0.955605,0.0956148
1541872404772008,-1.3892,0.957853,0.0971742
1541872404786041,-1.3886,0.960837,0.0989723
1541872404810043,-1.38773,0.963722,0.10039
1541872404832054,-1.38689,0.966931,0.101345
1541872404846069,-1.38547,0.970257,0.102767
1541872404869096,-1.38392,0.973445,0.104317
1541872404892114,-1.38243,0.976621,0.1054
1541872404906123,-1.38118,0.979459,0.105733
1541872404929145,-1.38013,0.981704,0.105244
1541872404952164,-1.37956,0.983103,0.10346
1541872404973216,-1.37973,0.983998,0.100849
1541872404989176,-1.3808,0.984552,0.0981539
1541872405012204,-1.38156,0.984869,0.095769
1541872405033230,-1.3837,0.984855,0.092625
1541872405049224,-1.38597,0.984894,0.0896797
1541872405072264,-1.38741,0.985476,0.0876505
1541872405093280,-1.38909,0.986,0.0862553
1541872405109274,-1.38986,0.986649,0.0859575
1541872405132295,-1.39017,0.987795,0.0867166
1541872405153329,-1.38912,0.989508,0.0883072
1541872405169339,-1.38711,0.992435,0.0906326
1541872405184352,-1.38413,0.996361,0.0938737
1541872405205353,-1.3816,0.999265,0.0960792
1541872405221367,-1.37931,1.00151,0.0979947
1541872405244385,-1.37703,1.00328,0.0991319
1541872405265402,-1.3762,1.0042,0.0985966
1541872405281419,-1.37576,1.00473,0.0977942
1541872405304434,-1.37598,1.00498,0.0964773
1541872405333478,-1.37658,1.00475,0.0952096
1541872405349471,-1.37745,1.00427,0.0930667
1541872405372493,-1.37875,1.0038,0.0908854
1541872405393565,-1.38035,1.00296,0.0889362
1541872405409522,-1.38172,1.00218,0.0878378
1541872405432559,-1.3827,1.00192,0.0871651
1541872405454568,-1.38277,1.00195,0.0873771
1541872405469581,-1.38275,1.00208,0.0875398
1541872405492603,-1.38275,1.00208,0.0875398
1541872405514612,-1.38289,1.00223,0.0874236
1541872405528632,-1.38289,1.00223,0.0874236
1541872405552652,-1.38289,1.00223,0.0874236
1541872405574677,-1.38297,1.00201,0.0866943
1541872405588676,-1.38317,1.00164,0.0857052
1541872405611707,-1.38407,1.00079,0.0839624
1541872405634726,-1.38442,0.999993,0.0830078
1541872405648735,-1.38561,0.999003,0.0813496
1541872405671753,-1.38605,0.998309,0.0806861
1541872405694775,-1.38659,0.99761,0.0797579
1541872405708778,-1.38804,0.997259,0.0784937
1541872405731803,-1.3879,0.99711,0.0786106
1541872405754816,-1.38792,0.99698,0.0784503
1541872405768819,-1.38879,0.997169,0.077741
1541872405791852,-1.38899,0.996894,0.0766668
1541872405814892,-1.3905,0.996807,0.0748461
1541872405828866,-1.39269,0.996473,0.0721272
1541872405851886,-1.39586,0.996094,0.0685949
1541872405874919,-1.3983,0.995768,0.065339
1541872405895977,-1.40046,0.995125,0.0624976
1541872405911941,-1.40279,0.99368,0.0586283
1541872405934969,-1.40515,0.991832,0.0546988
1541872405955992,-1.40762,0.990279,0.0504317
1541872405971984,-1.40997,0.988657,0.0463749
1541872405995023,-1.41193,0.987213,0.0421202
1541872406016041,-1.41329,0.985904,0.0377306
1541872406032033,-1.41465,0.984367,0.0324433
1541872406055071,-1.41674,0.982514,0.025538
1541872406076090,-1.41843,0.979884,0.0179786
1541872406092084,-1.4212,0.975979,0.0083596
1541872406115119,-1.4247,0.970925,-0.00295514
1541872406136139,-1.4289,0.963925,-0.0159728
1541872406151133,-1.43521,0.955028,-0.0315591
1541872406175206,-1.44094,0.944563,-0.0478853
1541872406196184,-1.44686,0.932701,-0.0653051
1541872406211198,-1.45435,0.918885,-0.0838267
1541872406234220,-1.46234,0.902202,-0.103042
1541872406255238,-1.46933,0.883101,-0.121749
1541872406271241,-1.47471,0.86246,-0.139984
1541872406294270,-1.47845,0.841209,-0.157476
1541872406317288,-1.48212,0.818122,-0.174952
1541872406331285,-1.48606,0.793146,-0.192399
1541872406354318,-1.48809,0.767046,-0.207064
1541872406377333,-1.49065,0.74024,-0.220952
1541872406399398,-1.49455,0.712471,-0.234197
1541872406414369,-1.49816,0.681131,-0.247884
1541872406420373,-1.49912,0.650107,-0.258964
1541872406442392,-1.50019,0.618872,-0.269418
1541872406459406,-1.50273,0.587822,-0.278356
1541872406480424,-1.50667,0.55608,-0.287241
1541872406502441,-1.51077,0.523987,-0.297657
1541872406519456,-1.5138,0.492595,-0.308131
1541872406540473,-1.51701,0.4629,-0.316958
1541872406562490,-1.5208,0.434244,-0.324498
1541872406579505,-1.52573,0.406402,-0.332465
1541872406600559,-1.53046,0.378369,-0.341523
1541872406622540,-1.53188,0.350281,-0.349907
1541872406639552,-1.53238,0.32271,-0.35654
1541872406660571,-1.53354,0.295012,-0.363118
1541872406682589,-1.53557,0.26704,-0.370534
1541872406699594,-1.5372,0.237703,-0.377358
1541872406720616,-1.53749,0.208619,-0.383182
1541872406742639,-1.53931,0.179492,-0.388757
1541872406758652,-1.54354,0.150362,-0.393983
1541872406780666,-1.54818,0.1207,-0.398231
1541872406802684,-1.55105,0.0916825,-0.401624
1541872406818743,-1.55283,0.0643369,-0.405534
1541872406839718,-1.55358,0.0387692,-0.410316
1541872406862738,-1.55348,0.0142244,-0.414771
1541872406878748,-1.55249,-0.0102318,-0.418168
1541872406899769,-1.55179,-0.0349565,-0.42041
1541872406922787,-1.55165,-0.0600817,-0.422813
1541872406938784,-1.55041,-0.0846346,-0.426041
1541872406959818,-1.54772,-0.108998,-0.429699
1541872406982837,-1.54438,-0.132803,-0.433084
1541872406998830,-1.54089,-0.156768,-0.435409
1541872407019903,-1.53632,-0.180447,-0.437163
1541872407042887,-1.53085,-0.204938,-0.439311
1541872407058894,-1.52687,-0.230416,-0.441106
1541872407079917,-1.52729,-0.256747,-0.442154
1541872407102936,-1.53043,-0.282831,-0.443435
1541872407118940,-1.53041,-0.308835,-0.446465
1541872407139967,-1.52627,-0.334808,-0.449615
1541872407163023,-1.52341,-0.361483,-0.452293
1541872407178981,-1.52486,-0.388131,-0.454593
1541872407200016,-1.5267,-0.413332,-0.457337
1541872407223034,-1.52547,-0.437845,-0.46066
1541872407239029,-1.52333,-0.461976,-0.464379
1541872407260066,-1.52234,-0.485535,-0.467718
1541872407283085,-1.5229,-0.508429,-0.470692
1541872407301091,-1.52386,-0.530299,-0.473461
1541872407320115,-1.52348,-0.552026,-0.476171
1541872407343116,-1.52443,-0.572848,-0.478697
1541872407361163,-1.52601,-0.590829,-0.481368
1541872407380164,-1.52658,-0.606531,-0.484728
1541872407403166,-1.52658,-0.620812,-0.487722
1541872407420198,-1.5262,-0.634214,-0.490783
1541872407440194,-1.52571,-0.647199,-0.493057
1541872407463213,-1.52525,-0.660349,-0.495671
1541872407480282,-1.52375,-0.673119,-0.498805
1541872407500264,-1.52398,-0.685841,-0.501268
1541872407522282,-1.52407,-0.698483,-0.503783
1541872407540330,-1.52283,-0.711594,-0.506299
1541872407560312,-1.52029,-0.725455,-0.508724
1541872407578328,-1.51877,-0.738964,-0.511282
1541872407600333,-1.5172,-0.752146,-0.514239
1541872407620348,-1.51472,-0.765208,-0.517869
1541872407638376,-1.51285,-0.778727,-0.520938
1541872407660392,-1.51041,-0.792317,-0.523851
1541872407680411,-1.50834,-0.806422,-0.526553
1541872407698426,-1.50629,-0.820913,-0.529645
1541872407720426,-1.50424,-0.835615,-0.533199
1541872407740460,-1.50119,-0.850175,-0.537425
1541872407758476,-1.49696,-0.864967,-0.542392
1541872407780474,-1.49269,-0.879414,-0.547249
1541872407800546,-1.48853,-0.893588,-0.552345
1541872407818525,-1.48514,-0.907109,-0.557314
1541872407839534,-1.48187,-0.919879,-0.562868
1541872407860559,-1.47991,-0.930696,-0.567074
1541872407876553,-1.47821,-0.940651,-0.570574
1541872407899573,-1.47515,-0.949787,-0.574361
1541872407920609,-1.4727,-0.958068,-0.577744
1541872407937623,-1.4708,-0.96511,-0.581392
1541872407959623,-1.46872,-0.970507,-0.585252
1541872407980659,-1.46596,-0.975057,-0.588564
1541872407997673,-1.46315,-0.97869,-0.591236
1541872408019672,-1.46013,-0.981637,-0.594015
1541872408040709,-1.45712,-0.984179,-0.59738
1541872408064719,-1.4544,-0.985863,-0.600713
1541872408079730,-1.45097,-0.987499,-0.603875
1541872408100758,-1.44717,-0.990206,-0.607754
1541872408124762,-1.44334,-0.993865,-0.612064
1541872408139770,-1.43921,-0.997309,-0.61711
1541872408160842,-1.43492,-1.00017,-0.622175
1541872408177821,-1.43256,-1.00143,-0.625389
1541872408199835,-1.43215,-1.00039,-0.62674
1541872408222859,-1.43564,-0.996386,-0.625812
1541872408236869,-1.4422,-0.989229,-0.622526
1541872408259872,-1.45066,-0.979114,-0.618026
1541872408282903,-1.45953,-0.966481,-0.613504
1541872408296919,-1.4678,-0.951496,-0.609259
1541872408319920,-1.47603,-0.93541,-0.605281
1541872408342951,-1.48398,-0.917915,-0.601314
1541872408363984,-1.49169,-0.898186,-0.597743
1541872408379970,-1.4982,-0.876105,-0.595444
1541872408401986,-1.50344,-0.851619,-0.592615
1541872408424015,-1.50848,-0.825817,-0.589983
1541872408440038,-1.51494,-0.798306,-0.586869
1541872408462091,-1.52088,-0.769284,-0.584836
1541872408483110,-1.52656,-0.738976,-0.583118
1541872408500080,-1.53193,-0.708266,-0.581887
1541872408522105,-1.53624,-0.67774,-0.580668
1541872408543122,-1.53977,-0.647391,-0.578578
1541872408560136,-1.5431,-0.617337,-0.576268
1541872408582145,-1.54601,-0.586736,-0.573587
1541872408603172,-1.5485,-0.556256,-0.570625
1541872408620186,-1.55057,-0.525416,-0.567237
1541872408642201,-1.55225,-0.49404,-0.56334
1541872408663221,-1.55366,-0.463072,-0.558679
1541872408680235,-1.55334,-0.43178,-0.554228
1541872408702248,-1.55363,-0.400255,-0.549843
1541872408723272,-1.55477,-0.367824,-0.545213
1541872408740285,-1.55696,-0.334466,-0.540442
1541872408762287,-1.55857,-0.300922,-0.536589
1541872408783318,-1.55933,-0.266717,-0.532118
1541872408800369,-1.56136,-0.231609,-0.527234
1541872408822343,-1.56444,-0.196443,-0.522612
1541872408843370,-1.56668,-0.161161,-0.51778
1541872408859382,-1.56865,-0.126141,-0.513371
1541872408882389,-1.56982,-0.0918255,-0.508743
1541872408903420,-1.5717,-0.0582575,-0.503812
1541872408920433,-1.5748,-0.0254328,-0.498517
1541872408942443,-1.57715,0.00712805,-0.493401
1541872408963468,-1.57801,0.0390322,-0.488
1541872408979482,-1.57917,0.0700527,-0.482675
1541872409002501,-1.57936,0.100459,-0.477157
1541872409023518,-1.58,0.130336,-0.471527
1541872409039512,-1.58067,0.159448,-0.465275
1541872409062532,-1.58095,0.186897,-0.459238
1541872409083548,-1.58066,0.213022,-0.453176
1541872409099562,-1.58091,0.238701,-0.447054
1541872409122582,-1.58099,0.263341,-0.440935
1541872409143597,-1.5812,0.287312,-0.434417
1541872409159611,-1.58196,0.31085,-0.428021
1541872409182646,-1.58261,0.333345,-0.421979
1541872409204648,-1.58328,0.355482,-0.415973
1541872409219661,-1.58476,0.378418,-0.40967
1541872409242679,-1.58519,0.400511,-0.404256
1541872409264699,-1.58387,0.421378,-0.398439
1541872409279710,-1.58268,0.441741,-0.392715
1541872409302729,-1.58263,0.462236,-0.387708
1541872409324748,-1.58183,0.481596,-0.383468
1541872409345774,-1.57984,0.499675,-0.379489
1541872409362778,-1.57786,0.516241,-0.37605
1541872409384800,-1.57687,0.532098,-0.372641
1541872409405833,-1.57698,0.547016,-0.369304
1541872409422847,-1.57688,0.561162,-0.366596
1541872409444845,-1.57594,0.574714,-0.363986
1541872409465883,-1.57496,0.588307,-0.3608
1541872409482897,-1.57414,0.602108,-0.357589
1541872409504895,-1.57318,0.616234,-0.35369
1541872409525923,-1.57254,0.629597,-0.350401
1541872409542927,-1.57157,0.642426,-0.347231
1541872409564945,-1.57051,0.654432,-0.343882
1541872409585967,-1.56927,0.66647,-0.340085
1541872409602977,-1.56851,0.677432,-0.33685
1541872409624994,-1.56748,0.688175,-0.333587
1541872409646025,-1.56681,0.698157,-0.330388
1541872409663040,-1.56564,0.707784,-0.326806
1541872409685043,-1.56445,0.717348,-0.322903
1541872409706061,-1.5638,0.726043,-0.319163
1541872409729082,-1.56362,0.734127,-0.315607
1541872409745095,-1.56238,0.741689,-0.311458
1541872409766133,-1.56276,0.749126,-0.307883
1541872409782126,-1.56226,0.75626,-0.303577
1541872409805144,-1.56201,0.763085,-0.300021
1541872409826180,-1.56217,0.770179,-0.296335
1541872409842188,-1.56155,0.777978,-0.292102
1541872409865207,-1.56114,0.786093,-0.287642
1541872409886229,-1.55985,0.793435,-0.283267
1541872409902222,-1.55817,0.800468,-0.278486
1541872409925254,-1.55575,0.807606,-0.272529
1541872409946278,-1.55361,0.814036,-0.266138
1541872409962291,-1.55123,0.819327,-0.259775
1541872409985292,-1.54823,0.82432,-0.252891
1541872410006327,-1.5459,0.828505,-0.24638
1541872410022341,-1.54476,0.831286,-0.240484
1541872410045359,-1.54479,0.833063,-0.236447
1541872410066413,-1.5443,0.834297,-0.232966
1541872410082373,-1.54416,0.836003,-0.229339
1541872410105410,-1.54512,0.837578,-0.226213
1541872410126462,-1.54555,0.839372,-0.222919
1541872410142432,-1.54584,0.841492,-0.22001
1541872410165459,-1.54652,0.844195,-0.21727
1541872410187457,-1.5465,0.847962,-0.214187
1541872410202469,-1.54646,0.852585,-0.211267
1541872410225543,-1.54614,0.857637,-0.208376
1541872410247507,-1.546,0.863159,-0.205713
1541872410262519,-1.54508,0.868796,-0.202822
1541872410285558,-1.54418,0.874024,-0.200366
1541872410307567,-1.54369,0.878844,-0.198081
1541872410321623,-1.54243,0.883213,-0.19513
1541872410345607,-1.54106,0.887164,-0.191737
1541872410367606,-1.53999,0.890248,-0.188731
1541872410381655,-1.53897,0.892648,-0.185831
1541872410412654,-1.53761,0.895465,-0.182603
1541872410427657,-1.53654,0.897192,-0.179918
1541872410441679,-1.53616,0.898484,-0.178659
1541872410464726,-1.5366,0.898755,-0.177531
1541872410487725,-1.53705,0.898632,-0.176806
1541872410501733,-1.53778,0.898818,-0.176297
1541872410524755,-1.53857,0.899176,-0.176064
1541872410547774,-1.53916,0.899584,-0.176084
1541872410561783,-1.53965,0.900474,-0.175769
1541872410584805,-1.54027,0.901776,-0.175305
1541872410607823,-1.54056,0.902998,-0.174953
1541872410628842,-1.54075,0.904612,-0.174397
1541872410644835,-1.54066,0.905964,-0.173558
1541872410667856,-1.54062,0.907885,-0.173601
1541872410688890,-1.54073,0.909617,-0.17313
1541872410704885,-1.5405,0.910676,-0.172325
1541872410727922,-1.54009,0.911931,-0.171675
1541872410748939,-1.53969,0.912904,-0.171317
1541872410764939,-1.53978,0.913621,-0.171447
1541872410787990,-1.53978,0.913621,-0.171447
1541872410808990,-1.53992,0.913681,-0.171638
1541872410824993,-1.53992,0.913681,-0.171638
1541872410831007,-1.53992,0.913681,-0.171638
1541872410853025,-1.54122,0.91327,-0.172423
1541872410876028,-1.54098,0.913339,-0.172236
1541872410891057,-1.54154,0.913536,-0.172052
1541872410913075,-1.5419,0.914213,-0.171729
1541872410936089,-1.54188,0.914707,-0.171191
1541872410951094,-1.54248,0.915481,-0.170877
1541872410973108,-1.54235,0.916343,-0.170115
1541872410991138,-1.54257,0.916934,-0.169585
1541872411010155,-1.54298,0.917241,-0.16903
1541872411033174,-1.54321,0.917697,-0.168694
1541872411051189,-1.54331,0.917891,-0.169349
1541872411070204,-1.54406,0.917648,-0.170918
1541872411093223,-1.54394,0.917415,-0.171924
1541872411111239,-1.54508,0.916795,-0.173275
1541872411130254,-1.54562,0.915714,-0.174001
1541872411153273,-1.54641,0.914729,-0.174733
1541872411171283,-1.54719,0.913671,-0.175513
1541872411190303,-1.54792,0.913344,-0.176185
1541872411213319,-1.54791,0.913389,-0.176121
1541872411231353,-1.54782,0.913472,-0.176192
1541872411250388,-1.54755,0.913347,-0.176823
1541872411273372,-1.54763,0.912593,-0.178024
1541872411291386,-1.54757,0.911526,-0.179338
1541872411310403,-1.54782,0.909261,-0.181341
1541872411333421,-1.54761,0.905527,-0.183644
1541872411351436,-1.54754,0.90044,-0.187197
1541872411370451,-1.54677,0.893456,-0.192001
1541872411393471,-1.54627,0.884153,-0.198916
1541872411415489,-1.54594,0.871757,-0.207838
1541872411430501,-1.54579,0.856144,-0.217952
1541872411453521,-1.54473,0.837484,-0.228613
1541872411475534,-1.5437,0.814834,-0.239821
1541872411490534,-1.5418,0.790144,-0.250532
1541872411513607,-1.54177,0.763039,-0.261551
1541872411531565,-1.54182,0.734341,-0.272297
1541872411550600,-1.54355,0.704606,-0.284064
1541872411573615,-1.54683,0.672641,-0.296604
1541872411590634,-1.55096,0.638626,-0.308672
1541872411610650,-1.55393,0.605,-0.31769
1541872411633649,-1.55816,0.57232,-0.327288
1541872411650685,-1.56157,0.54083,-0.336119
1541872411670700,-1.5638,0.510556,-0.342433
1541872411692717,-1.56815,0.481987,-0.347771
1541872411710733,-1.57356,0.454314,-0.354371
1541872411731750,-1.57576,0.427569,-0.361461
1541872411752767,-1.57428,0.402219,-0.366567
1541872411770775,-1.57397,0.377945,-0.370855
1541872411791834,-1.57694,0.354144,-0.375163
1541872411812816,-1.57996,0.330126,-0.379261
1541872411830811,-1.58054,0.306265,-0.383131
1541872411851829,-1.58094,0.282925,-0.387468
1541872411872849,-1.58261,0.260482,-0.392118
1541872411890877,-1.58438,0.238466,-0.396174
1541872411911879,-1.5854,0.217313,-0.399821
1541872411932915,-1.58629,0.195859,-0.403998
1541872411950914,-1.5873,0.173819,-0.408006
1541872411971929,-1.58796,0.151313,-0.411288
1541872411992965,-1.58847,0.128866,-0.414604
1541872412010969,-1.5883,0.107096,-0.418644
1541872412033999,-1.58634,0.0854916,-0.422462
1541872412053014,-1.58506,0.0640431,-0.425444
1541872412071009,-1.58552,0.0426621,-0.428283
1541872412094043,-1.58658,0.0213866,-0.431246
1541872412113100,-1.58665,-0.000488549,-0.435203
1541872412131074,-1.58432,-0.0238048,-0.439396
1541872412154093,-1.58224,-0.0484824,-0.441861
1541872412173148,-1.58336,-0.0740013,-0.443692
1541872412191109,-1.58514,-0.0989026,-0.446885
1541872412214162,-1.58396,-0.123175,-0.450826
1541872412233164,-1.58274,-0.147187,-0.454079
1541872412250157,-1.5832,-0.171172,-0.456103
1541872412273196,-1.58466,-0.195064,-0.458098
1541872412294249,-1.58521,-0.218335,-0.460328
1541872412310206,-1.58352,-0.240863,-0.462772
1541872412333245,-1.58116,-0.264154,-0.464695
1541872412354263,-1.57998,-0.2879,-0.465325
1541872412370257,-1.57975,-0.312169,-0.46567
1541872412393325,-1.57932,-0.336285,-0.466678
1541872412414313,-1.57846,-0.359904,-0.467744
1541872412430306,-1.57674,-0.382996,-0.468261
1541872412453378,-1.57622,-0.405948,-0.468431
1541872412474355,-1.57597,-0.428912,-0.468125
1541872412490366,-1.57603,-0.45165,-0.467947
1541872412513403,-1.57483,-0.47411,-0.468828
1541872412534403,-1.5729,-0.496664,-0.46996
1541872412550423,-1.57185,-0.520283,-0.470418
1541872412573440,-1.57193,-0.544099,-0.469989
1541872412594451,-1.57169,-0.567992,-0.470641
1541872412610469,-1.56945,-0.591188,-0.472175
1541872412632492,-1.56638,-0.614124,-0.474205
1541872412653509,-1.56606,-0.637604,-0.47578
1541872412670523,-1.56515,-0.660871,-0.477596
1541872412692542,-1.56266,-0.684645,-0.479754
1541872412713558,-1.55931,-0.708139,-0.482094
1541872412730569,-1.55624,-0.731218,-0.485008
1541872412752581,-1.55236,-0.753241,-0.487827
1541872412773608,-1.54921,-0.774264,-0.490143
1541872412789601,-1.54587,-0.794303,-0.493444
1541872412812624,-1.54235,-0.813802,-0.496671
1541872412833657,-1.53811,-0.832938,-0.500277
1541872412849666,-1.53374,-0.852192,-0.504052
1541872412872671,-1.52926,-0.872019,-0.508116
1541872412893690,-1.52483,-0.89226,-0.512704
1541872412909700,-1.5203,-0.912338,-0.517754
1541872412932729,-1.51603,-0.931747,-0.523078
1541872412953756,-1.51312,-0.94979,-0.527315
1541872412969761,-1.51012,-0.966658,-0.531914
1541872412992768,-1.50945,-0.981685,-0.534138
1541872413015844,-1.50893,-0.994502,-0.536511
1541872413029799,-1.50989,-1.00478,-0.538049
1541872413052833,-1.51154,-1.01276,-0.53921
1541872413075857,-1.51278,-1.01824,-0.540181
1541872413089848,-1.51377,-1.02241,-0.540144
1541872413112868,-1.51535,-1.02535,-0.53957
1541872413135906,-1.51665,-1.02684,-0.539763
1541872413156923,-1.51787,-1.02701,-0.540597
1541872413172926,-1.51708,-1.02661,-0.541054
1541872413195952,-1.5163,-1.02471,-0.541608
1541872413209963,-1.51712,-1.0209,-0.541437
1541872413232968,-1.51956,-1.01319,-0.539933
1541872413255986,-1.52227,-1.00246,-0.538622
1541872413277013,-1.52558,-0.988974,-0.536729
1541872413293018,-1.53116,-0.972469,-0.533879
1541872413316051,-1.53618,-0.954258,-0.531503
1541872413336071,-1.5392,-0.933583,-0.530394
1541872413353085,-1.54405,-0.91008,-0.528158
1541872413375101,-1.5489,-0.883993,-0.526159
1541872413396121,-1.55433,-0.855758,-0.52381
1541872413413135,-1.55946,-0.825703,-0.521578
1541872413435151,-1.56088,-0.795195,-0.521111
1541872413456170,-1.56159,-0.763816,-0.522298
1541872413473167,-1.56505,-0.731004,-0.52204
1541872413495200,-1.56933,-0.697276,-0.520463
1541872413516222,-1.57108,-0.663321,-0.520254
1541872413533253,-1.57207,-0.628201,-0.521658
1541872413555234,-1.57702,-0.590706,-0.522171
1541872413576266,-1.58289,-0.55205,-0.523109
1541872413593283,-1.58655,-0.511837,-0.523076
1541872413616302,-1.58999,-0.471915,-0.520952
1541872413636356,-1.59344,-0.430333,-0.518266
1541872413653333,-1.5974,-0.389618,-0.515192
1541872413675339,-1.60105,-0.348593,-0.511081
1541872413696367,-1.60138,-0.309602,-0.507208
1541872413712363,-1.60183,-0.272902,-0.502547
1541872413735381,-1.60554,-0.236402,-0.498519
1541872413756417,-1.611,-0.200486,-0.495571
1541872413772432,-1.61575,-0.164678,-0.493022
1541872413795431,-1.61947,-0.128451,-0.489648
1541872413816503,-1.62323,-0.0919337,-0.486228
1541872413832462,-1.6257,-0.0557378,-0.482352
1541872413857494,-1.6273,-0.0210832,-0.478581
1541872413876516,-1.6307,0.011318,-0.475696
1541872413892530,-1.63525,0.0431243,-0.472009
1541872413915530,-1.64017,0.073329,-0.46844
1541872413937567,-1.64308,0.102219,-0.466191
1541872413952579,-1.64744,0.131058,-0.462701
1541872413975587,-1.6532,0.159197,-0.459985
1541872413997617,-1.65654,0.186898,-0.456951
1541872414012629,-1.65957,0.212863,-0.453856
1541872414035648,-1.66383,0.23787,-0.451358
1541872414057707,-1.66742,0.262692,-0.448918
1541872414078683,-1.67068,0.287101,-0.447261
1541872414095697,-1.67458,0.312235,-0.444932
1541872414117754,-1.67679,0.336882,-0.442231
1541872414138732,-1.67845,0.360801,-0.439646
1541872414155727,-1.67945,0.383491,-0.436175
1541872414177762,-1.6803,0.404512,-0.43266
1541872414198818,-1.681,0.424733,-0.428899
1541872414215797,-1.68109,0.44327,-0.42504
1541872414237795,-1.68004,0.460577,-0.420801
1541872414258867,-1.6789,0.476951,-0.416343
1541872414275846,-1.67793,0.492765,-0.411862
1541872414297861,-1.67644,0.507602,-0.407494
1541872414318882,-1.6752,0.522189,-0.40334
1541872414335896,-1.67382,0.53682,-0.399504
1541872414357903,-1.67185,0.551487,-0.395028
1541872414378931,-1.67052,0.566307,-0.390466
1541872414395944,-1.66819,0.58114,-0.385211
1541872414417944,-1.66619,0.59605,-0.380484
1541872414438980,-1.66362,0.610318,-0.375847
1541872414455995,-1.66127,0.624431,-0.370964
1541872414477993,-1.65987,0.637671,-0.366269
1541872414507071,-1.65851,0.650927,-0.361563
1541872414515044,-1.65661,0.663224,-0.357024
1541872414538043,-1.65411,0.675437,-0.352048
1541872414559079,-1.65112,0.686997,-0.346408
1541872414576129,-1.64844,0.697864,-0.340291
1541872414598092,-1.64564,0.708201,-0.333467
1541872414619129,-1.64286,0.717737,-0.326304
1541872414636134,-1.63994,0.726367,-0.319189
1541872414658177,-1.63643,0.734563,-0.312068
1541872414679215,-1.63338,0.742596,-0.30459
1541872414695174,-1.63071,0.750862,-0.296532
1541872414718211,-1.62892,0.758981,-0.288265
1541872414739263,-1.62652,0.766398,-0.280244
1541872414755242,-1.62369,0.77345,-0.273186
1541872414778240,-1.62113,0.780356,-0.266109
1541872414799312,-1.62004,0.786842,-0.259424
1541872414815290,-1.61897,0.793283,-0.2536
1541872414838304,-1.61751,0.799301,-0.24915
1541872414860318,-1.61632,0.805723,-0.245221
1541872414875340,-1.61601,0.812005,-0.241682
1541872414898359,-1.61534,0.818589,-0.238494
1541872414920374,-1.61418,0.825344,-0.235953
1541872414935425,-1.61324,0.832645,-0.233965
1541872414958409,-1.61273,0.84042,-0.232239
1541872414980423,-1.61206,0.848409,-0.230678
1541872415001443,-1.61141,0.856321,-0.229206
1541872415018457,-1.61046,0.863748,-0.227254
1541872415040456,-1.60891,0.871319,-0.224777
1541872415061493,-1.60692,0.877932,-0.222422
1541872415078507,-1.60512,0.883882,-0.220801
1541872415100505,-1.60314,0.88847,-0.21917
1541872415121543,-1.60158,0.892257,-0.217509
1541872415138592,-1.59992,0.895969,-0.216075
1541872415160554,-1.59814,0.900181,-0.214898
1541872415174586,-1.59664,0.903267,-0.213707
1541872415198605,-1.59494,0.906016,-0.212132
1541872415220612,-1.59365,0.909183,-0.209976
1541872415225627,-1.5922,0.91191,-0.207921
1541872415242643,-1.59193,0.914764,-0.206824
1541872415263659,-1.59182,0.917274,-0.207339
1541872415285678,-1.5924,0.920577,-0.208627
1541872415302692,-1.59225,0.923865,-0.210173
1541872415323709,-1.5912,0.927557,-0.211405
1541872415345765,-1.59027,0.930803,-0.212307
1541872415362724,-1.58922,0.934039,-0.21236
1541872415383760,-1.5877,0.936911,-0.211957
1541872415405778,-1.58553,0.940166,-0.210683
1541872415422790,-1.58355,0.94351,-0.208362
1541872415443808,-1.58131,0.946673,-0.206121
1541872415465827,-1.57907,0.949706,-0.203381
1541872415482840,-1.57648,0.952854,-0.200562
1541872415503857,-1.57337,0.955976,-0.197504
1541872415525910,-1.57117,0.958896,-0.19468
1541872415542889,-1.56804,0.96172,-0.191265
1541872415563907,-1.56484,0.963536,-0.187164
1541872415585925,-1.56189,0.965112,-0.183421
1541872415602975,-1.55936,0.965988,-0.180127
1541872415623993,-1.55708,0.967002,-0.17685
1541872415646010,-1.55531,0.968011,-0.173781
1541872415662989,-1.55225,0.969402,-0.169703
1541872415684005,-1.54906,0.971182,-0.165976
1541872415706024,-1.5466,0.973492,-0.162708
1541872415723019,-1.54344,0.975714,-0.158917
1541872415744050,-1.54081,0.977491,-0.155223
1541872415766109,-1.53799,0.979518,-0.151589
1541872415783091,-1.53487,0.981786,-0.147539
1541872415804105,-1.5314,0.984107,-0.142847
1541872415826123,-1.52768,0.98695,-0.138482
1541872415844137,-1.52355,0.989398,-0.1335
1541872415863154,-1.51983,0.991582,-0.129168
1541872415886173,-1.51613,0.993329,-0.125265
1541872415904168,-1.5121,0.994777,-0.121108
1541872415924203,-1.5078,0.995228,-0.11743
1541872415946222,-1.50413,0.995506,-0.114049
1541872415964238,-1.50048,0.995146,-0.110318
1541872415983252,-1.49669,0.994965,-0.107124
1541872416006271,-1.49327,0.995385,-0.103689
1541872416024280,-1.49004,0.99627,-0.100463
1541872416043341,-1.48624,0.997411,-0.0966508
1541872416066320,-1.48248,0.998942,-0.0922144
1541872416084331,-1.47862,1.00051,-0.0878876
1541872416103351,-1.47463,1.00216,-0.083598
1541872416126406,-1.47079,1.00395,-0.0794294
1541872416144382,-1.46765,1.00505,-0.0755116
1541872416163384,-1.46429,1.00626,-0.0717667
1541872416186455,-1.46081,1.00724,-0.0680121
1541872416204434,-1.458,1.00778,-0.0648602
1541872416223450,-1.45515,1.00796,-0.0616501
1541872416246450,-1.45229,1.00827,-0.0582945
1541872416264485,-1.44928,1.00851,-0.0547267
1541872416283500,-1.44559,1.00862,-0.0507064
1541872416306520,-1.44205,1.00848,-0.0468544
1541872416324533,-1.43902,1.0079,-0.0439586
1541872416343545,-1.43696,1.00697,-0.0417826
1541872416361559,-1.43625,1.00466,-0.0412537
1541872416384579,-1.43622,1.00204,-0.0418903
1541872416405599,-1.43758,0.999074,-0.0436594
1541872416421594,-1.43957,0.995843,-0.0464864
1541872416444623,-1.4427,0.992314,-0.0506535
1541872416465647,-1.44609,0.989662,-0.0548075
1541872416481645,-1.44908,0.986776,-0.0591814
1541872416503680,-1.45279,0.984593,-0.0641948
1541872416525680,-1.45745,0.981761,-0.0701933
1541872416541712,-1.462,0.978189,-0.0766971
1541872416563774,-1.46715,0.973047,-0.0837519
1541872416585750,-1.47146,0.9667,-0.0914281
1541872416605766,-1.47498,0.959195,-0.0991217
1541872416623764,-1.47874,0.949753,-0.107759
1541872416644830,-1.48187,0.938119,-0.116344
1541872416666817,-1.48461,0.923828,-0.125094
1541872416683816,-1.48707,0.908907,-0.133928
1541872416704828,-1.48968,0.892272,-0.143005
1541872416726864,-1.49173,0.874311,-0.152615
1541872416743873,-1.49345,0.856932,-0.162096
1541872416765888,-1.49547,0.837973,-0.170849
1541872416779890,-1.4976,0.819696,-0.179523
1541872416802927,-1.49969,0.800916,-0.188912
1541872416825947,-1.50229,0.780274,-0.198957
1541872416839948,-1.50541,0.758652,-0.209206
1541872416862973,-1.50904,0.735598,-0.220017
1541872416885997,-1.51207,0.71126,-0.229962
1541872416907050,-1.51417,0.68578,-0.239256
1541872416923044,-1.51601,0.659915,-0.249284
1541872416946045,-1.51788,0.633011,-0.259036
1541872416967062,-1.52013,0.606366,-0.268811
1541872416983057,-1.52333,0.579617,-0.277804
1541872417006112,-1.52793,0.551596,-0.285784
1541872417027113,-1.53228,0.521908,-0.293083
1541872417043107,-1.53521,0.49059,-0.299968
1541872417066144,-1.53746,0.457033,-0.307039
1541872417087162,-1.53781,0.422717,-0.313916
1541872417103166,-1.53745,0.388326,-0.319807
1541872417133186,-1.53819,0.354276,-0.325605
1541872417147212,-1.53837,0.320963,-0.331985
1541872417163205,-1.5386,0.28907,-0.338883
1541872417186240,-1.53926,0.259414,-0.345196
1541872417207298,-1.5408,0.230498,-0.350593
1541872417223260,-1.54137,0.201461,-0.35599
1541872417246294,-1.54101,0.171691,-0.362153
1541872417267303,-1.53989,0.141374,-0.369567
1541872417283305,-1.53835,0.112296,-0.375938
1541872417306343,-1.53687,0.0831498,-0.381532
1541872417327360,-1.53636,0.0553307,-0.38753
1541872417343354,-1.53651,0.0276159,-0.393877
1541872417366388,-1.53675,0.000641823,-0.399672
1541872417387424,-1.53746,-0.0249642,-0.404549
1541872417403413,-1.53664,-0.0506661,-0.409495
1541872417426433,-1.53535,-0.0764693,-0.413696
1541872417447450,-1.53511,-0.1028,-0.416988
1541872417463467,-1.53548,-0.130191,-0.420166
1541872417485490,-1.53473,-0.15765,-0.422199
1541872417507505,-1.53324,-0.18508,-0.424143
1541872417522517,-1.53282,-0.211631,-0.425614
1541872417545582,-1.5312,-0.237262,-0.427097
1541872417566557,-1.52933,-0.262432,-0.428105
1541872417582554,-1.52805,-0.287778,-0.428607
1541872417605580,-1.52608,-0.314827,-0.429585
1541872417626607,-1.52373,-0.344728,-0.430433
1541872417642610,-1.52387,-0.376934,-0.429592
1541872417665628,-1.52455,-0.410299,-0.430548
1541872417686647,-1.52429,-0.443256,-0.432798
1541872417702649,-1.52359,-0.475247,-0.434684
1541872417725679,-1.52467,-0.505917,-0.435998
1541872417748708,-1.52558,-0.534756,-0.437374
1541872417762715,-1.5249,-0.561237,-0.438279
1541872417785720,-1.5242,-0.585428,-0.439457
1541872417808757,-1.52457,-0.606666,-0.439984
1541872417822759,-1.52382,-0.62636,-0.440885
1541872417845770,-1.52201,-0.644341,-0.44251
1541872417868808,-1.51984,-0.661669,-0.444397
1541872417889823,-1.51807,-0.678195,-0.446268
1541872417905816,-1.51694,-0.694058,-0.447992
1541872417928856,-1.51462,-0.708418,-0.450235
1541872417949873,-1.51159,-0.722144,-0.452993
1541872417965879,-1.50802,-0.734406,-0.456666
1541872417988905,-1.50421,-0.746169,-0.460172
1541872418009922,-1.50184,-0.757544,-0.462303
1541872418025927,-1.49877,-0.767858,-0.465127
1541872418048951,-1.49567,-0.777277,-0.468528
1541872418069972,-1.49221,-0.785872,-0.472015
1541872418085969,-1.4881,-0.794536,-0.475622
1541872418108998,-1.48273,-0.803858,-0.479885
1541872418130033,-1.47693,-0.813719,-0.484516
1541872418146016,-1.47068,-0.824493,-0.489693
1541872418168053,-1.46334,-0.836003,-0.495597
1541872418190062,-1.45514,-0.848917,-0.501457
1541872418207078,-1.4472,-0.862515,-0.507215
1541872418228102,-1.43936,-0.876548,-0.513537
1541872418249119,-1.43159,-0.890289,-0.51999
1541872418266134,-1.42317,-0.903341,-0.52658
1541872418288149,-1.41413,-0.91598,-0.533181
1541872418309204,-1.40568,-0.928318,-0.53955
1541872418326166,-1.39733,-0.939402,-0.546852
1541872418348192,-1.39264,-0.950074,-0.551212
1541872418369219,-1.38862,-0.959814,-0.556423
1541872418386249,-1.38407,-0.967812,-0.562091
1541872418408231,-1.37855,-0.974788,-0.567587
1541872418429268,-1.37284,-0.98037,-0.571935
1541872418445263,-1.36672,-0.985692,-0.575691
1541872418468290,-1.35968,-0.990718,-0.578604
1541872418489353,-1.3522,-0.99545,-0.581896
1541872418505312,-1.34563,-1.00018,-0.585754
1541872418528340,-1.33745,-1.00493,-0.590252
1541872418549350,-1.32826,-1.00993,-0.595352
1541872418565361,-1.31845,-1.01546,-0.601019
1541872418588390,-1.30924,-1.02072,-0.606515
1541872418611418,-1.2995,-1.02598,-0.612678
1541872418625430,-1.28946,-1.03156,-0.619196
1541872418648431,-1.27885,-1.0372,-0.625295
1541872418671468,-1.26864,-1.0432,-0.631048
1541872418685479,-1.25884,-1.04874,-0.636872
1541872418708489,-1.2504,-1.05374,-0.643079
1541872418731551,-1.24251,-1.05793,-0.64843
1541872418752534,-1.23694,-1.06217,-0.6534
1541872418768529,-1.23358,-1.06535,-0.657169
1541872418791600,-1.2302,-1.06758,-0.660505
1541872418805573,-1.22896,-1.06951,-0.662652
1541872418828587,-1.2288,-1.06995,-0.664121
1541872418851597,-1.23095,-1.0701,-0.663475
1541872418865610,-1.23878,-1.06932,-0.659657
1541872418888646,-1.25765,-1.06722,-0.647529
1541872418910707,-1.28321,-1.05899,-0.632204
1541872418931683,-1.31078,-1.047,-0.612407
1541872418948695,-1.33813,-1.03017,-0.592765
1541872418970749,-1.36651,-1.0093,-0.572328
1541872418991731,-1.39299,-0.98534,-0.552595
1541872419008745,-1.41456,-0.958193,-0.534602
1541872419030745,-1.43091,-0.928324,-0.519738
1541872419051817,-1.44396,-0.896911,-0.507548
1541872419068795,-1.45692,-0.864921,-0.496286
1541872419090794,-1.46823,-0.832876,-0.486847
1541872419111830,-1.47805,-0.801242,-0.477999
1541872419128847,-1.4853,-0.769425,-0.470941
1541872419150861,-1.49116,-0.737059,-0.465317
1541872419171915,-1.49793,-0.704623,-0.460474
1541872419188894,-1.50423,-0.672423,-0.455594
1541872419210903,-1.507,-0.640876,-0.450384
1541872419231929,-1.50935,-0.609539,-0.444979
1541872419248980,-1.51271,-0.578255,-0.440161
1541872419270941,-1.51506,-0.547315,-0.435401
1541872419291978,-1.51606,-0.517079,-0.430626
1541872419308992,-1.5157,-0.48718,-0.425998
1541872419330991,-1.51736,-0.457827,-0.420618
1541872419352064,-1.52021,-0.428503,-0.415733
1541872419368037,-1.52332,-0.399,-0.411164
1541872419391041,-1.52634,-0.369418,-0.406781
1541872419412077,-1.52911,-0.340164,-0.402981
1541872419428091,-1.53181,-0.310906,-0.399253
1541872419451099,-1.53483,-0.281623,-0.395849
1541872419472127,-1.53839,-0.251993,-0.392723
1541872419488121,-1.54126,-0.222383,-0.390359
1541872419511140,-1.54359,-0.192659,-0.387897
1541872419532176,-1.54574,-0.163122,-0.385655
1541872419548189,-1.54791,-0.133815,-0.383742
1541872419571204,-1.54962,-0.10462,-0.382379
1541872419593210,-1.55121,-0.0755362,-0.381393
1541872419608256,-1.55246,-0.0465889,-0.380368
1541872419615242,-1.55358,-0.0183172,-0.379139
1541872419636263,-1.55488,0.0100734,-0.377831
1541872419659278,-1.55647,0.0382329,-0.376472
1541872419675279,-1.55731,0.0654,-0.375821
1541872419696348,-1.55722,0.0914332,-0.374608
1541872419719314,-1.55672,0.116032,-0.373327
1541872419735327,-1.55875,0.140356,-0.371744
1541872419756398,-1.56201,0.164212,-0.370449
1541872419779363,-1.56355,0.187252,-0.36972
1541872419795373,-1.56367,0.209352,-0.368388
1541872419816410,-1.56397,0.230646,-0.367195
1541872419839429,-1.56517,0.251176,-0.366232
1541872419857428,-1.56663,0.271061,-0.364558
1541872419876459,-1.56868,0.290048,-0.363446
1541872419906485,-1.57021,0.30829,-0.36266
1541872419917488,-1.57058,0.325897,-0.36172
1541872419936509,-1.5714,0.342591,-0.360596
1541872419959527,-1.57301,0.358221,-0.359525
1541872419975523,-1.57438,0.373657,-0.358175
1541872419996596,-1.57579,0.38921,-0.356526
1541872420019575,-1.57725,0.404669,-0.354916
1541872420035590,-1.57745,0.419801,-0.353246
1541872420056608,-1.57658,0.434504,-0.351249
1541872420078626,-1.57621,0.448607,-0.349158
1541872420093640,-1.57675,0.462454,-0.346829
1541872420116658,-1.57685,0.475688,-0.344745
1541872420138676,-1.57639,0.488618,-0.343143
1541872420153688,-1.57522,0.501266,-0.341179
1541872420176707,-1.57451,0.513096,-0.339004
1541872420198725,-1.57389,0.524136,-0.336462
1541872420215757,-1.57343,0.534435,-0.334106
1541872420236757,-1.5732,0.543806,-0.331952
1541872420258775,-1.57264,0.552992,-0.329961
1541872420275807,-1.57183,0.562136,-0.327801
1541872420296807,-1.57169,0.571354,-0.325471
1541872420318825,-1.57168,0.580886,-0.322651
1541872420335839,-1.5716,0.589597,-0.320056
1541872420356857,-1.57099,0.597721,-0.317617
1541872420378870,-1.57012,0.605411,-0.314609
1541872420395908,-1.56954,0.612668,-0.311488
1541872420416946,-1.56868,0.619732,-0.308714
1541872420438924,-1.56744,0.625967,-0.305943
1541872420455937,-1.5664,0.631467,-0.303497
1541872420476955,-1.56649,0.636112,-0.300612
1541872420498973,-1.56677,0.640495,-0.297611
1541872420516979,-1.56774,0.64457,-0.295268
1541872420537004,-1.56803,0.648786,-0.292822
1541872420555019,-1.56814,0.653428,-0.290321
1541872420577019,-1.56835,0.658043,-0.288049
1541872420597054,-1.56818,0.663019,-0.284986
1541872420615049,-1.5682,0.668416,-0.281923
1541872420637068,-1.56803,0.673612,-0.278989
1541872420657099,-1.56717,0.678457,-0.275684
1541872420681104,-1.56669,0.682865,-0.27293
1541872420697136,-1.56621,0.687229,-0.269757
1541872420717136,-1.56652,0.691494,-0.266915
1541872420734167,-1.56665,0.69565,-0.264543
1541872420757186,-1.56637,0.699719,-0.262137
1541872420776202,-1.5663,0.703721,-0.25987
1541872420794251,-1.56594,0.707994,-0.257431
1541872420817238,-1.56607,0.712236,-0.25497
1541872420836251,-1.5658,0.71589,-0.25299
1541872420854259,-1.56562,0.718715,-0.25128
1541872420877284,-1.56524,0.721469,-0.249584
1541872420896301,-1.56512,0.723571,-0.247229
1541872420914296,-1.56511,0.725688,-0.245091
1541872420936334,-1.56512,0.728203,-0.243346
1541872420957351,-1.56536,0.730839,-0.242334
1541872420974346,-1.56611,0.733389,-0.241342
1541872420997365,-1.56685,0.736055,-0.239864
1541872421016437,-1.56708,0.738658,-0.238058
1541872421033396,-1.5676,0.74106,-0.236396
1541872421056429,-1.56783,0.743577,-0.234724
1541872421077450,-1.56816,0.746422,-0.232551
1541872421093473,-1.56806,0.749581,-0.229946
1541872421116482,-1.56756,0.752847,-0.2271
1541872421137499,-1.56706,0.756115,-0.224677
1541872421153493,-1.56659,0.759264,-0.223136
1541872421176549,-1.56624,0.761855,-0.222376
1541872421197549,-1.56559,0.763887,-0.222295
1541872421213542,-1.56473,0.764752,-0.223315
1541872421236616,-1.56482,0.76487,-0.225207
1541872421257598,-1.5652,0.764156,-0.227405
1541872421273593,-1.56631,0.763131,-0.229954
1541872421296629,-1.56707,0.762283,-0.231625
1541872421317684,-1.5674,0.762372,-0.231839
1541872421333651,-1.56772,0.763129,-0.231361
1541872421356680,-1.56815,0.764775,-0.23022
1541872421377697,-1.56889,0.76705,-0.228407
1541872421393690,-1.56858,0.769804,-0.225722
1541872421416764,-1.56773,0.77245,-0.222793
1541872421437746,-1.56708,0.775344,-0.219714
1541872421453741,-1.56698,0.778197,-0.216998
1541872421476780,-1.56689,0.780889,-0.214843
1541872421498777,-1.56651,0.783953,-0.212834
1541872421513790,-1.56636,0.786876,-0.211412
1541872421536828,-1.56651,0.789186,-0.210139
1541872421558833,-1.56709,0.791189,-0.209317
1541872421573839,-1.56732,0.792841,-0.208105
1541872421596875,-1.56757,0.794707,-0.207126
1541872421618897,-1.5677,0.796505,-0.20595
1541872421632930,-1.56784,0.798415,-0.204672
1541872421656919,-1.56797,0.800859,-0.202855
1541872421678946,-1.56866,0.803273,-0.201457
1541872421692938,-1.5687,0.80581,-0.199708
1541872421715975,-1.56874,0.80868,-0.197649
1541872421738995,-1.56864,0.810967,-0.195522
1541872421753003,-1.56821,0.813314,-0.19343
1541872421777010,-1.56769,0.815466,-0.191649
1541872421799027,-1.56773,0.817438,-0.19049
1541872421813050,-1.56787,0.819049,-0.189502
1541872421836084,-1.56789,0.820554,-0.18841
1541872421859093,-1.56771,0.821952,-0.187731
1541872421873095,-1.56813,0.823519,-0.187689
1541872421896108,-1.5682,0.824829,-0.187585
1541872421926131,-1.56864,0.825056,-0.187512
1541872421933135,-1.56891,0.824932,-0.186756
1541872421956155,-1.56914,0.824727,-0.185255
1541872421979193,-1.56924,0.824575,-0.18348
1541872422000210,-1.56905,0.825213,-0.181373
1541872422016213,-1.56922,0.826599,-0.179282
1541872422039242,-1.56895,0.828568,-0.176414
1541872422060260,-1.56813,0.831049,-0.173029
1541872422076253,-1.56707,0.833719,-0.16936
1541872422099292,-1.56579,0.836201,-0.165812
1541872422120309,-1.56462,0.838799,-0.162359
1541872422136302,-1.56368,0.841054,-0.159342
1541872422159341,-1.56259,0.842598,-0.15637
1541872422180358,-1.56115,0.843824,-0.153392
1541872422196367,-1.56046,0.844765,-0.15217
1541872422219382,-1.56082,0.845628,-0.152044
1541872422240391,-1.56074,0.846188,-0.152033
1541872422256402,-1.56074,0.846188,-0.152033
1541872422279455,-1.5614,0.846158,-0.151932
1541872422300459,-1.56208,0.846774,-0.151577
1541872422316470,-1.56229,0.848089,-0.15032
1541872422339497,-1.56196,0.850398,-0.148447
1541872422360504,-1.56172,0.85359,-0.145542
1541872422376518,-1.56,0.857782,-0.141595
1541872422398581,-1.55866,0.86219,-0.138193
1541872422419591,-1.557,0.866046,-0.13577
1541872422436550,-1.5562,0.868622,-0.13383
1541872422458582,-1.55601,0.871178,-0.132349
1541872422481607,-1.55557,0.873522,-0.130977
1541872422496619,-1.55577,0.87588,-0.13045
1541872422518632,-1.55563,0.87805,-0.130168
1541872422541648,-1.55608,0.880177,-0.129997
1541872422556651,-1.55602,0.88224,-0.129266
1541872422578668,-1.55579,0.883782,-0.128011
1541872422601705,-1.55542,0.885251,-0.126553
1541872422615698,-1.55457,0.887043,-0.124568
1541872422638727,-1.55361,0.888966,-0.122581
1541872422661755,-1.55357,0.890875,-0.120636
1541872422675748,-1.55288,0.893053,-0.117512
1541872422698782,-1.55205,0.895586,-0.113779
1541872422721804,-1.55088,0.898478,-0.110117
1541872422735797,-1.55012,0.901404,-0.107193
1541872422758825,-1.54845,0.905067,-0.104309
1541872422781849,-1.54658,0.908923,-0.10192
1541872422795848,-1.54519,0.911907,-0.100228
1541872422818870,-1.5444,0.91359,-0.0995494
1541872422841899,-1.54406,0.914359,-0.0992031
1541872422855911,-1.54406,0.914359,-0.0992031
1541872422878914,-1.5441,0.913363,-0.098839
1541872422901954,-1.54459,0.912551,-0.0980971
1541872422915967,-1.54497,0.911815,-0.0974216
1541872422938964,-1.54551,0.911594,-0.0968966
1541872422962003,-1.54521,0.912047,-0.0958988
1541872422983020,-1.54468,0.912514,-0.0947768
1541872422999015,-1.54401,0.912797,-0.0935847
1541872423022087,-1.54363,0.913167,-0.0928458
1541872423042105,-1.54362,0.913098,-0.0929009
1541872423059078,-1.54362,0.913098,-0.0929009
1541872423082093,-1.54361,0.912541,-0.0930721
1541872423103100,-1.54348,0.912113,-0.0932436
1541872423119132,-1.54348,0.912113,-0.0932436
1541872423142147,-1.54278,0.912482,-0.0929527
1541872423163165,-1.54147,0.912833,-0.0926002
1541872423179182,-1.54027,0.91243,-0.0924751
1541872423201191,-1.53918,0.91018,-0.0933
1541872423222213,-1.54036,0.902097,-0.0959654
1541872423238215,-1.54318,0.889704,-0.101016
1541872423261240,-1.54737,0.875063,-0.107322
1541872423282266,-1.55259,0.858982,-0.115268
1541872423305285,-1.55888,0.840582,-0.125077
1541872423321289,-1.56765,0.816437,-0.136376
1541872423342315,-1.57493,0.787907,-0.148547
1541872423358325,-1.57602,0.758741,-0.160421
1541872423381339,-1.56762,0.728409,-0.174018
1541872423404368,-1.55307,0.69807,-0.187589
1541872423418366,-1.54163,0.667429,-0.198402
1541872423441377,-1.53701,0.637195,-0.205191
1541872423464418,-1.53753,0.607664,-0.209602
1541872423478420,-1.54095,0.576427,-0.216646
1541872423501427,-1.54161,0.543089,-0.225567
1541872423524468,-1.53858,0.507849,-0.233566
1541872423545486,-1.53439,0.474813,-0.238478
1541872423561476,-1.53465,0.442716,-0.241879
1541872423590519,-1.53815,0.409047,-0.247304
1541872423605533,-1.53804,0.374038,-0.255047
1541872423621538,-1.53458,0.339544,-0.261833
1541872423644560,-1.53358,0.307207,-0.264916
1541872423665576,-1.53747,0.276452,-0.268675
1541872423681577,-1.54171,0.24695,-0.274515
1541872423704625,-1.54068,0.217711,-0.282605
1541872423725643,-1.53497,0.187614,-0.288845
1541872423741642,-1.53172,0.156829,-0.291042
1541872423763663,-1.53266,0.126065,-0.293568
1541872423785662,-1.53492,0.0956281,-0.298897
1541872423801675,-1.53251,0.0648052,-0.306444
1541872423823748,-1.5255,0.0333238,-0.311197
1541872423844730,-1.52264,0.00137469,-0.312493
1541872423861744,-1.52613,-0.0295483,-0.314607
1541872423884779,-1.52893,-0.0608723,-0.319346
1541872423904778,-1.52527,-0.0915194,-0.325615
1541872423921794,-1.51937,-0.121707,-0.328881
1541872423943808,-1.51631,-0.15243,-0.329755
1541872423964863,-1.51543,-0.183988,-0.332093
1541872423981860,-1.51208,-0.215524,-0.336078
1541872424003842,-1.50611,-0.246956,-0.339998
1541872424009866,-1.50112,-0.277948,-0.341885
1541872424031884,-1.49951,-0.308438,-0.343198
1541872424046896,-1.49884,-0.337021,-0.346464
1541872424069899,-1.49508,-0.364622,-0.351614
1541872424091934,-1.48975,-0.39124,-0.356037
1541872424106946,-1.48684,-0.416936,-0.358497
1541872424129964,-1.48631,-0.441502,-0.360608
1541872424151982,-1.48499,-0.464482,-0.363895
1541872424166998,-1.48101,-0.486529,-0.368018
1541872424190005,-1.47677,-0.508333,-0.372058
1541872424212032,-1.47436,-0.529897,-0.375276
1541872424227036,-1.47441,-0.550424,-0.378435
1541872424249063,-1.47376,-0.569423,-0.382907
1541872424272081,-1.47122,-0.588093,-0.388384
1541872424287085,-1.46763,-0.606358,-0.393416
1541872424309112,-1.46515,-0.625228,-0.396532
1541872424332131,-1.46531,-0.643646,-0.398981
1541872424347144,-1.46443,-0.66111,-0.403047
1541872424369162,-1.46108,-0.677451,-0.407969
1541872424392180,-1.45681,-0.693583,-0.412652
1541872424407176,-1.45335,-0.709938,-0.417386
1541872424429246,-1.45045,-0.725335,-0.422616
1541872424452230,-1.44635,-0.74032,-0.428911
1541872424467238,-1.44088,-0.75458,-0.43535
1541872424489262,-1.4355,-0.769212,-0.441517
1541872424512280,-1.43014,-0.783942,-0.448455
1541872424527292,-1.42467,-0.798236,-0.455429
1541872424549312,-1.41974,-0.812709,-0.462538
1541872424567315,-1.41498,-0.826691,-0.470673
1541872424588331,-1.41028,-0.840593,-0.479172
1541872424609359,-1.40546,-0.854245,-0.487715
1541872424627356,-1.40051,-0.867934,-0.496433
1541872424647392,-1.39637,-0.881241,-0.505655
1541872424669411,-1.39353,-0.89417,-0.514665
1541872424687415,-1.38943,-0.907477,-0.525235
1541872424707476,-1.3886,-0.920235,-0.534578
1541872424729459,-1.38523,-0.933114,-0.546086
1541872424747465,-1.38023,-0.945417,-0.558138
1541872424767492,-1.3741,-0.958311,-0.570522
1541872424789492,-1.36745,-0.971368,-0.583311
1541872424807506,-1.36142,-0.983738,-0.595568
1541872424827582,-1.35541,-0.995659,-0.607721
1541872424849559,-1.3506,-1.00543,-0.619064
1541872424867573,-1.34575,-1.01339,-0.62869
1541872424887580,-1.34256,-1.01826,-0.635901
1541872424909607,-1.34209,-1.02046,-0.640007
1541872424927622,-1.34365,-1.01884,-0.641319
1541872424948639,-1.34742,-1.01571,-0.640038
1541872424977659,-1.35529,-1.01033,-0.636171
1541872424994671,-1.36562,-1.00252,-0.630023
1541872425011691,-1.37656,-0.992467,-0.622503
1541872425029706,-1.38881,-0.980057,-0.613451
1541872425047721,-1.40344,-0.964816,-0.602608
1541872425068737,-1.41875,-0.947602,-0.590597
1541872425089756,-1.43488,-0.928476,-0.579207
1541872425107763,-1.45139,-0.906569,-0.568381
1541872425128789,-1.46574,-0.882626,-0.558906
1541872425149806,-1.47644,-0.857106,-0.550458
1541872425167820,-1.48506,-0.830573,-0.541832
1541872425188837,-1.49168,-0.802826,-0.533929
1541872425209854,-1.49799,-0.773953,-0.525996
1541872425227870,-1.50412,-0.743282,-0.518554
1541872425248870,-1.50853,-0.711684,-0.512482
1541872425270888,-1.51211,-0.679429,-0.506335
1541872425287914,-1.51551,-0.64685,-0.500781
1541872425309919,-1.51945,-0.614055,-0.494971
1541872425329954,-1.52169,-0.581286,-0.489777
1541872425347969,-1.52352,-0.54864,-0.484839
1541872425369967,-1.52533,-0.515729,-0.480149
1541872425390006,-1.52599,-0.483297,-0.475853
1541872425408022,-1.5265,-0.45089,-0.471125
1541872425430017,-1.52783,-0.416545,-0.465643
1541872425450088,-1.52998,-0.381388,-0.460265
1541872425467066,-1.53165,-0.346115,-0.455193
1541872425489075,-1.53323,-0.310701,-0.450111
1541872425510137,-1.53511,-0.274772,-0.445041
1541872425527112,-1.53781,-0.238723,-0.43977
1541872425549118,-1.54027,-0.202356,-0.434495
1541872425570151,-1.54139,-0.166363,-0.429539
1541872425587165,-1.54319,-0.131027,-0.424361
1541872425609166,-1.54483,-0.0963736,-0.419465
1541872425630236,-1.54516,-0.0636004,-0.414704
1541872425647215,-1.54578,-0.0313131,-0.408998
1541872425669224,-1.54624,0.000356957,-0.403182
1541872425690285,-1.54704,0.0316349,-0.397037
1541872425707264,-1.54701,0.0613789,-0.390569
1541872425729263,-1.54647,0.0892803,-0.384875
1541872425750299,-1.5458,0.116753,-0.378795
1541872425767306,-1.54695,0.142892,-0.37297
1541872425789313,-1.54796,0.167574,-0.368004
1541872425810384,-1.54782,0.19106,-0.362469
1541872425826362,-1.54734,0.21327,-0.356486
1541872425849363,-1.54684,0.23452,-0.350954
1541872425870399,-1.54764,0.25525,-0.345961
1541872425886412,-1.54852,0.276163,-0.340043
1541872425909430,-1.55014,0.296996,-0.334103
1541872425937454,-1.55104,0.317464,-0.32863
1541872425946461,-1.55092,0.338259,-0.322494
1541872425969480,-1.55106,0.358943,-0.315973
1541872425990499,-1.55073,0.37953,-0.309377
1541872426006511,-1.55054,0.399929,-0.302632
1541872426029511,-1.55084,0.42012,-0.295807
1541872426050547,-1.55089,0.440248,-0.289033
1541872426074567,-1.55079,0.459847,-0.282659
1541872426089579,-1.55058,0.478508,-0.276686
1541872426110633,-1.5493,0.49646,-0.270235
1541872426126610,-1.54759,0.51335,-0.263086
1541872426149628,-1.54534,0.528864,-0.255362
1541872426170681,-1.54321,0.542448,-0.247131
1541872426186657,-1.54115,0.555161,-0.239025
1541872426209678,-1.5396,0.567634,-0.231578
1541872426232697,-1.53836,0.579597,-0.224105
1541872426246707,-1.53673,0.591514,-0.216998
1541872426269727,-1.53481,0.602836,-0.210592
1541872426291728,-1.53225,0.613835,-0.20377
1541872426306740,-1.52978,0.625172,-0.196429
1541872426329776,-1.52809,0.636058,-0.188884
1541872426351791,-1.52612,0.646768,-0.180844
1541872426380819,-1.52379,0.657516,-0.173998
1541872426389827,-1.52114,0.667771,-0.16774
1541872426411830,-1.51874,0.676822,-0.161995
1541872426432861,-1.51617,0.685381,-0.156313
1541872426449871,-1.51426,0.693925,-0.151009
1541872426471875,-1.51289,0.701432,-0.146729
1541872426492912,-1.51142,0.708739,-0.14283
1541872426508925,-1.51007,0.715437,-0.139379
1541872426531944,-1.50909,0.721298,-0.136368
1541872426552961,-1.50642,0.727817,-0.132475
1541872426568974,-1.50465,0.734592,-0.129202
1541872426591984,-1.50331,0.740595,-0.126445
1541872426613047,-1.5016,0.746182,-0.124032
1541872426629024,-1.49991,0.75138,-0.121632
1541872426652043,-1.49927,0.756145,-0.120035
1541872426666038,-1.49812,0.760776,-0.118606
1541872426689108,-1.49721,0.765088,-0.117614
1541872426712109,-1.49646,0.768367,-0.116374
1541872426733145,-1.49655,0.771961,-0.114727
1541872426749113,-1.49609,0.775581,-0.112634
1541872426772141,-1.49593,0.779614,-0.11081
1541872426793195,-1.49543,0.783817,-0.108479
1541872426809163,-1.49491,0.788251,-0.105481
1541872426832191,-1.49374,0.7927,-0.101825
1541872426853209,-1.49231,0.797641,-0.0979352
1541872426869208,-1.49141,0.802282,-0.0939374
1541872426892240,-1.48964,0.807345,-0.0899589
1541872426913294,-1.48782,0.812768,-0.0863474
1541872426929252,-1.48618,0.817319,-0.0835483
1541872426952289,-1.48445,0.821286,-0.080733
1541872426973307,-1.48331,0.824479,-0.0779866
1541872426989301,-1.48197,0.827232,-0.0748409
1541872427012374,-1.48099,0.829257,-0.0720135
1541872427033357,-1.48006,0.830648,-0.0694976
1541872427049351,-1.47869,0.832066,-0.0667705
1541872427072389,-1.4768,0.834367,-0.0632695
1541872427093406,-1.4756,0.836007,-0.0599508
1541872427110420,-1.47393,0.837742,-0.0559278
1541872427132433,-1.47202,0.839301,-0.0511722
1541872427154448,-1.47032,0.841184,-0.0461481
1541872427169450,-1.46909,0.842573,-0.0414629
1541872427192485,-1.46775,0.843693,-0.0364062
1541872427214488,-1.46581,0.845434,-0.0302063
1541872427229519,-1.46384,0.8472,-0.0235468
1541872427251537,-1.4621,0.848855,-0.0171004
1541872427274543,-1.46006,0.851322,-0.0104196
1541872427289571,-1.45829,0.854309,-0.00345758
1541872427312568,-1.45625,0.857348,0.00329994
1541872427334601,-1.4537,0.860927,0.0101057
1541872427348610,-1.45133,0.864859,0.0164359
1541872427371631,-1.44881,0.868737,0.022202
1541872427394655,-1.44605,0.872571,0.0280471
1541872427408646,-1.44366,0.875264,0.0332569
1541872427431666,-1.44107,0.876831,0.0379085
1541872427454704,-1.43814,0.87757,0.0422001
1541872427468706,-1.43615,0.877626,0.0458653
1541872427491717,-1.43512,0.876597,0.0484368
1541872427514753,-1.43432,0.875096,0.0505526
1541872427528747,-1.43355,0.873223,0.0526317
1541872427551769,-1.43312,0.871682,0.0551227
1541872427574804,-1.43198,0.870118,0.0583399
1541872427588815,-1.43179,0.869284,0.0613153
1541872427617839,-1.43184,0.869215,0.0648422
1541872427634852,-1.43152,0.869813,0.0689093
1541872427655869,-1.43005,0.871317,0.0739829
1541872427671870,-1.42771,0.872872,0.079754
1541872427694901,-1.42539,0.874394,0.0850915
1541872427715919,-1.42258,0.875413,0.0907141
1541872427731915,-1.42001,0.875759,0.096053
1541872427754952,-1.41884,0.875084,0.100308
1541872427775968,-1.41824,0.873186,0.103056
1541872427791977,-1.41813,0.870494,0.104424
1541872427815001,-1.41845,0.868086,0.1051
1541872427836015,-1.41913,0.866942,0.106452
1541872427852012,-1.41955,0.866341,0.108354
1541872427875039,-1.41999,0.866853,0.110328
1541872427896093,-1.41973,0.868282,0.112908
1541872427912072,-1.41947,0.870444,0.115741
1541872427935107,-1.41837,0.873277,0.118985
1541872427956108,-1.41745,0.876201,0.121842
1541872427972131,-1.41593,0.879499,0.12504
1541872427994149,-1.41402,0.882605,0.128246
1541872428015166,-1.41172,0.884994,0.130824
1541872428032180,-1.41006,0.886622,0.132193
1541872428054192,-1.40844,0.887435,0.133594
1541872428075216,-1.40773,0.887028,0.13411
1541872428092230,-1.40694,0.88643,0.134644
1541872428114241,-1.40677,0.88549,0.134639
1541872428137267,-1.4078,0.88477,0.133862
1541872428152279,-1.40846,0.88392,0.133326
1541872428174294,-1.40867,0.883541,0.133376
1541872428197316,-1.40871,0.88296,0.133688
1541872428212329,-1.40855,0.882122,0.134202
1541872428234344,-1.40838,0.881402,0.134859
1541872428257382,-1.40833,0.880577,0.135128
1541872428271357,-1.40863,0.879469,0.134495
1541872428294389,-1.40829,0.877645,0.133348
1541872428317414,-1.40862,0.875648,0.131858
1541872428331407,-1.40846,0.87299,0.130048
1541872428354431,-1.40869,0.869696,0.127297
1541872428377464,-1.40971,0.86525,0.122992
1541872428398483,-1.41162,0.859789,0.117066
1541872428414476,-1.4134,0.853488,0.110238
1541872428420481,-1.41533,0.845755,0.102302
1541872428442518,-1.41776,0.836438,0.0931122
1541872428464536,-1.4212,0.824827,0.082026
1541872428479551,-1.42409,0.811149,0.0704802
1541872428502569,-1.42605,0.796823,0.0588658
1541872428524569,-1.42854,0.780961,0.0470902
1541872428539600,-1.43174,0.763993,0.0347944
1541872428562600,-1.43473,0.745619,0.0220476
1541872428580625,-1.43762,0.725948,0.00970894
1541872428601649,-1.4401,0.705704,-0.00207265
1541872428622667,-1.44313,0.685218,-0.0132872
1541872428640682,-1.44778,0.663811,-0.0246357
1541872428659697,-1.45311,0.64102,-0.0362718
1541872428682716,-1.45735,0.616605,-0.0477035
1541872428700730,-1.45963,0.593177,-0.0564157
1541872428719746,-1.46326,0.569186,-0.0649156
1541872428742761,-1.467,0.545281,-0.0734734
1541872428758761,-1.46985,0.520626,-0.0829621
1541872428779779,-1.47271,0.494524,-0.0930322
1541872428802815,-1.47559,0.467409,-0.102105
1541872428818808,-1.47787,0.440484,-0.110235
1541872428839845,-1.48108,0.414399,-0.118695
1541872428862864,-1.4837,0.388406,-0.127649
1541872428878860,-1.48606,0.361291,-0.13756
1541872428899931,-1.48785,0.332907,-0.146533
1541872428922913,-1.48973,0.304773,-0.153534
1541872428940926,-1.49192,0.27775,-0.160836
1541872428959945,-1.4931,0.251292,-0.168381
1541872428982963,-1.49424,0.225867,-0.1757
1541872428998956,-1.49673,0.200578,-0.182163
1541872429019994,-1.49972,0.174944,-0.188197
1541872429043008,-1.50174,0.148711,-0.193945
1541872429060026,-1.50206,0.122934,-0.199991
1541872429080042,-1.50239,0.0979438,-0.206463
1541872429102063,-1.50413,0.0730884,-0.213435
1541872429120077,-1.50632,0.0477704,-0.219368
1541872429140095,-1.5076,0.0221008,-0.225028
1541872429162113,-1.50772,-0.00363755,-0.230862
1541872429180126,-1.50694,-0.0295047,-0.237894
1541872429200124,-1.506,-0.0551989,-0.244991
1541872429222157,-1.50645,-0.0813029,-0.251058
1541872429240162,-1.50815,-0.107893,-0.255981
1541872429260192,-1.5089,-0.134736,-0.261361
1541872429284212,-1.50787,-0.16036,-0.266499
1541872429300205,-1.50744,-0.183758,-0.270775
1541872429320241,-1.50954,-0.204212,-0.274377
1541872429342241,-1.51307,-0.22193,-0.277151
1541872429360255,-1.51485,-0.238044,-0.279294
1541872429380291,-1.51379,-0.253524,-0.281374
1541872429402309,-1.5116,-0.269132,-0.283201
1541872429420315,-1.51053,-0.285098,-0.284609
1541872429440376,-1.51027,-0.300933,-0.28599
1541872429462358,-1.5099,-0.316241,-0.287897
1541872429480353,-1.50909,-0.331155,-0.29009
1541872429500390,-1.50781,-0.345582,-0.292265
1541872429522407,-1.50696,-0.359916,-0.294419
1541872429546407,-1.50652,-0.373887,-0.29639
1541872429561424,-1.50613,-0.387709,-0.298546
1541872429582457,-1.50603,-0.40187,-0.300276
1541872429600453,-1.50564,-0.415828,-0.301851
1541872429620489,-1.50495,-0.429501,-0.30361
1541872429642506,-1.50414,-0.443366,-0.305455
1541872429660502,-1.50363,-0.457296,-0.306896
1541872429681519,-1.50339,-0.471292,-0.308116
1541872429702556,-1.50267,-0.485152,-0.309371
1541872429720552,-1.50198,-0.49832,-0.3106
1541872429741569,-1.50121,-0.5107,-0.312474
1541872429762644,-1.50078,-0.522324,-0.314262
1541872429780600,-1.50069,-0.53413,-0.315437
1541872429801636,-1.5005,-0.545632,-0.316071
1541872429823693,-1.50029,-0.55718,-0.31734
1541872429840673,-1.49986,-0.568174,-0.318843
1541872429860685,-1.49889,-0.578824,-0.320196
1541872429883706,-1.49868,-0.589139,-0.321376
1541872429899709,-1.49865,-0.598775,-0.322305
1541872429922739,-1.49878,-0.607814,-0.32326
1541872429936745,-1.49845,-0.616243,-0.32429
1541872429959757,-1.49826,-0.62386,-0.325093
1541872429988783,-1.49849,-0.631107,-0.325512
1541872429996798,-1.49851,-0.637292,-0.326297
1541872430019817,-1.49836,-0.642746,-0.327494
1541872430041836,-1.49732,-0.647792,-0.328158
1541872430056848,-1.49624,-0.653361,-0.328459
1541872430079867,-1.49688,-0.658108,-0.329064
1541872430101885,-1.49657,-0.662171,-0.330126
1541872430117889,-1.4945,-0.666237,-0.331504
1541872430139917,-1.49218,-0.670833,-0.332692
1541872430161972,-1.48961,-0.675304,-0.334058
1541872430176947,-1.48608,-0.680074,-0.335655
1541872430199966,-1.48216,-0.685953,-0.337461
1541872430221980,-1.47745,-0.692548,-0.339891
1541872430243002,-1.47217,-0.700458,-0.342414
1541872430266056,-1.46674,-0.709867,-0.34505
1541872430282015,-1.46166,-0.720389,-0.347859
1541872430303051,-1.457,-0.732225,-0.350634
1541872430320065,-1.45287,-0.744881,-0.3543
1541872430342064,-1.44926,-0.758099,-0.358477
1541872430363101,-1.44698,-0.770557,-0.363005
1541872430380132,-1.44341,-0.782622,-0.367607
1541872430402113,-1.43915,-0.794938,-0.372237
1541872430423132,-1.43516,-0.807636,-0.376815
1541872430440199,-1.43125,-0.820673,-0.381934
1541872430462162,-1.42753,-0.833616,-0.387644
1541872430483200,-1.42328,-0.84662,-0.393789
1541872430500213,-1.41896,-0.859676,-0.400096
1541872430522213,-1.41414,-0.871988,-0.406646
1541872430543248,-1.40902,-0.883676,-0.41321
1541872430560288,-1.40425,-0.894866,-0.419102
1541872430582261,-1.39988,-0.904908,-0.425719
1541872430603299,-1.39509,-0.913372,-0.431462
1541872430620310,-1.3904,-0.921206,-0.437377
1541872430642321,-1.38642,-0.927805,-0.441933
1541872430671348,-1.38244,-0.934212,-0.446293
1541872430679342,-1.37803,-0.940626,-0.450565
1541872430702380,-1.37727,-0.946319,-0.453293
1541872430723433,-1.37585,-0.950542,-0.456257
1541872430739412,-1.37463,-0.954238,-0.457962
1541872430762429,-1.37264,-0.957402,-0.45798
1541872430783442,-1.37017,-0.96129,-0.456487
1541872430807463,-1.36824,-0.966575,-0.454854
1541872430822479,-1.36713,-0.972635,-0.454991
1541872430843496,-1.36898,-0.977965,-0.454861
1541872430859509,-1.3709,-0.981871,-0.453791
1541872430882511,-1.37178,-0.985117,-0.451284
1541872430904542,-1.37041,-0.989114,-0.449307
1541872430919551,-1.37163,-0.99244,-0.448862
1541872430942561,-1.37465,-0.994819,-0.448904
1541872430964577,-1.37778,-0.996302,-0.447932
1541872430979590,-1.37977,-0.998278,-0.44631
1541872431002627,-1.38111,-1.00161,-0.445192
1541872431024628,-1.38284,-1.00533,-0.445057
1541872431039637,-1.38569,-1.00908,-0.445666
1541872431062677,-1.38729,-1.01287,-0.447104
1541872431084686,-1.38828,-1.01643,-0.447636
1541872431099707,-1.38821,-1.01969,-0.447358
1541872431122727,-1.388,-1.0226,-0.447131
1541872431144727,-1.38925,-1.0246,-0.447001
1541872431159744,-1.39,-1.02574,-0.447348
1541872431182776,-1.39126,-1.02612,-0.447682
1541872431204774,-1.39196,-1.02584,-0.44782
1541872431219787,-1.39211,-1.02505,-0.44798
1541872431242825,-1.39172,-1.02486,-0.448212
1541872431264825,-1.39037,-1.02402,-0.448435
1541872431278854,-1.38895,-1.02315,-0.449215
1541872431302875,-1.38824,-1.02174,-0.45007
1541872431324882,-1.38692,-1.02022,-0.45086
1541872431338906,-1.38512,-1.01885,-0.451701
1541872431362924,-1.38401,-1.01749,-0.453106
1541872431384926,-1.38415,-1.01611,-0.453947
1541872431405960,-1.38391,-1.01481,-0.455078
1541872431422971,-1.38355,-1.01402,-0.456614
1541872431444974,-1.3833,-1.01373,-0.458605
1541872431466008,-1.3831,-1.0134,-0.46148
1541872431482059,-1.38488,-1.01316,-0.46358
1541872431505041,-1.3914,-1.01174,-0.464197
1541872431526095,-1.39888,-1.00783,-0.464571
1541872431542072,-1.40853,-1.00175,-0.462225
1541872431565091,-1.41739,-0.99249,-0.459766
1541872431586109,-1.42605,-0.979648,-0.457743
1541872431602120,-1.43634,-0.962927,-0.45542
1541872431625140,-1.44626,-0.941956,-0.452787
1541872431646194,-1.45544,-0.918785,-0.449954
1541872431662153,-1.4622,-0.894292,-0.447994
1541872431685190,-1.4694,-0.869701,-0.445259
1541872431713248,-1.4778,-0.844424,-0.441844
1541872431722220,-1.48656,-0.818516,-0.438518
1541872431745240,-1.49354,-0.791826,-0.435969
1541872431766291,-1.49836,-0.765213,-0.43317
1541872431782265,-1.50279,-0.739066,-0.429921
1541872431805288,-1.50792,-0.713014,-0.42627
1541872431826306,-1.51263,-0.686854,-0.422657
1541872431842302,-1.51747,-0.661131,-0.417123
1541872431865338,-1.52093,-0.636055,-0.412068
1541872431887338,-1.52381,-0.612224,-0.407768
1541872431902349,-1.52688,-0.589191,-0.403684
1541872431925388,-1.53045,-0.566876,-0.398766
1541872431947387,-1.53388,-0.546267,-0.393794
1541872431961417,-1.53519,-0.527746,-0.389941
1541872431985437,-1.53408,-0.51155,-0.38635
1541872432007436,-1.53497,-0.495872,-0.382586
1541872432028473,-1.53853,-0.47974,-0.378661
1541872432045483,-1.54233,-0.463784,-0.374888
1541872432067486,-1.54455,-0.448823,-0.370873
1541872432088522,-1.54557,-0.435291,-0.366734
1541872432104535,-1.54737,-0.422669,-0.36326
1541872432127554,-1.55103,-0.410156,-0.360628
1541872432148572,-1.55524,-0.396883,-0.358618
1541872432165570,-1.55822,-0.383308,-0.356267
1541872432187585,-1.56014,-0.369844,-0.354291
1541872432208657,-1.56158,-0.357208,-0.352476
1541872432224635,-1.56252,-0.345146,-0.351409
1541872432247655,-1.56353,-0.332408,-0.350726
1541872432268672,-1.56443,-0.31948,-0.349725
1541872432284679,-1.56539,-0.306848,-0.34883
1541872432307703,-1.56569,-0.295284,-0.348715
1541872432328720,-1.56638,-0.284865,-0.348767
1541872432344724,-1.56744,-0.275847,-0.348911
1541872432367769,-1.56941,-0.267522,-0.348771
1541872432388770,-1.57192,-0.259831,-0.348791
1541872432404779,-1.57484,-0.251594,-0.348486
1541872432427819,-1.57732,-0.242043,-0.34828
1541872432448855,-1.57858,-0.231648,-0.34725
1541872432464813,-1.57897,-0.220393,-0.345413
1541872432487852,-1.57944,-0.208706,-0.343542
1541872432508868,-1.57964,-0.196548,-0.341785
1541872432524872,-1.57978,-0.183788,-0.340098
1541872432547904,-1.5806,-0.170365,-0.33883
1541872432568953,-1.58138,-0.156595,-0.337768
1541872432584923,-1.5819,-0.142713,-0.336824
1541872432607950,-1.58252,-0.128761,-0.336009
1541872432628967,-1.58235,-0.114854,-0.335268
1541872432643981,-1.58166,-0.101489,-0.334467
1541872432674005,-1.58153,-0.088668,-0.333729
1541872432689016,-1.58177,-0.0762644,-0.332994
1541872432704029,-1.58251,-0.0647322,-0.332354
1541872432728045,-1.58233,-0.0544535,-0.332284
1541872432749064,-1.58079,-0.0464021,-0.332068
1541872432764070,-1.58002,-0.0402246,-0.331482
1541872432788095,-1.58135,-0.0342321,-0.33085
1541872432810107,-1.58297,-0.0280292,-0.330666
1541872432815122,-1.58312,-0.0221814,-0.330434
1541872432832135,-1.58282,-0.0169703,-0.330016
1541872432853152,-1.5845,-0.0114609,-0.329519
1541872432875170,-1.58744,-0.00460002,-0.328853
1541872432892168,-1.58901,0.003282,-0.32831
1541872432913240,-1.58851,0.0116907,-0.327432
1541872432935220,-1.58842,0.0202848,-0.326466
1541872432952233,-1.59002,0.0293802,-0.325446
1541872432973251,-1.59155,0.0386752,-0.324634
1541872432995270,-1.59256,0.0484074,-0.324189
1541872433012301,-1.59249,0.0578673,-0.323627
1541872433033301,-1.5926,0.0671312,-0.323079
1541872433055319,-1.5936,0.0759851,-0.32283
1541872433072332,-1.5954,0.0848839,-0.322807
1541872433093350,-1.59624,0.093762,-0.323109
1541872433115368,-1.59513,0.101835,-0.323924
1541872433132382,-1.59385,0.108413,-0.324416
1541872433153399,-1.59425,0.113801,-0.324911
1541872433175418,-1.59555,0.118214,-0.325514
1541872433190430,-1.59607,0.121551,-0.326061
1541872433213485,-1.59584,0.124221,-0.326284
1541872433235503,-1.59632,0.126774,-0.325847
1541872433252471,-1.59864,0.129991,-0.325114
1541872433273478,-1.60105,0.133984,-0.323977
1541872433290512,-1.60174,0.138888,-0.322845
1541872433310529,-1.60093,0.143911,-0.321159
1541872433333530,-1.60057,0.148828,-0.319257
1541872433350563,-1.60056,0.15363,-0.31736
1541872433370614,-1.60119,0.158195,-0.315525
1541872433392597,-1.60209,0.16252,-0.314228
1541872433410622,-1.60213,0.166552,-0.313295
1541872433431620,-1.6007,0.170304,-0.312406
1541872433452646,-1.59743,0.172465,-0.31191
1541872433470643,-1.59519,0.173532,-0.311743
1541872433491670,-1.59653,0.174006,-0.310993
1541872433512695,-1.59946,0.174698,-0.310838
1541872433530699,-1.59989,0.174801,-0.311755
1541872433551714,-1.59768,0.17507,-0.312533
1541872433572781,-1.59661,0.175928,-0.312281
1541872433590756,-1.5986,0.177643,-0.311545
1541872433611759,-1.60042,0.180606,-0.311008
1541872433632794,-1.60009,0.184703,-0.310571
1541872433650800,-1.59991,0.19034,-0.30984
1541872433671807,-1.60114,0.197005,-0.308759
1541872433692844,-1.60192,0.204057,-0.307473
1541872433710840,-1.60175,0.210773,-0.306265
1541872433731859,-1.6013,0.21735,-0.305372
1541872433752893,-1.60187,0.224473,-0.304439
1541872433775912,-1.60331,0.231625,-0.303965
1541872433793928,-1.60368,0.238703,-0.303463
1541872433812924,-1.60325,0.244844,-0.302833
1541872433830939,-1.60244,0.249901,-0.301851
1541872433860963,-1.60298,0.254987,-0.300604
1541872433872993,-1.60539,0.260692,-0.299105
1541872433891007,-1.60777,0.267311,-0.297829
1541872433914021,-1.60737,0.274239,-0.296281
1541872433933041,-1.60579,0.280384,-0.294444
1541872433951057,-1.6045,0.285398,-0.292246
1541872433974056,-1.60445,0.28903,-0.290878
1541872433993091,-1.6047,0.291797,-0.29014
1541872434011106,-1.60529,0.294365,-0.289623
1541872434033165,-1.60605,0.297412,-0.289153
1541872434060147,-1.60753,0.300915,-0.288284
1541872434071156,-1.60848,0.304408,-0.287427
1541872434093157,-1.60893,0.307953,-0.285967
1541872434116187,-1.60955,0.312184,-0.28439
1541872434131206,-1.60963,0.316759,-0.283007
1541872434153204,-1.60894,0.321373,-0.281938
1541872434173242,-1.6076,0.325265,-0.281174
1541872434191254,-1.60628,0.328334,-0.280641
