timestamp,x,y,z,w
1541874448774648,0.118469,0.430908,-0.605103,-0.658875
1541874448775650,0.113403,0.436523,-0.595886,-0.66449
1541874448776650,0.105042,0.444031,-0.583191,-0.672119
1541874448796666,0.085022,0.456909,-0.554565,-0.690308
1541874448835696,0.0773315,0.46582,-0.537598,-0.698608
1541874448838698,0.0679321,0.475342,-0.519714,-0.706665
1541874448856713,0.0526733,0.483521,-0.50177,-0.715332
1541874448877766,0.0324097,0.490112,-0.483643,-0.724487
1541874448894763,0.0101929,0.497131,-0.463684,-0.733337
1541874448961813,-0.0116577,0.505432,-0.440491,-0.741882
1541874448961813,-0.0338745,0.513428,-0.415283,-0.750244
1541874449014853,-0.0584106,0.518921,-0.390564,-0.758118
1541874449216050,-0.0859985,0.521912,-0.368225,-0.764648
1541874449456238,-0.11145,0.524475,-0.346313,-0.769836
1541874449458240,-0.130371,0.5271,-0.323792,-0.774841
1541874449479222,-0.124084,0.530701,-0.284851,-0.788635
1541874449481222,-0.12439,0.530457,-0.571228,-0.613953
1541874449517271,-0.119324,0.529968,-0.597717,-0.5896
1541874449524293,-0.113831,0.529297,-0.623657,-0.563965
1541874449526258,-0.108887,0.527588,-0.649109,-0.537109
1541874449548272,-0.105408,0.524109,-0.6745,-0.509216
1541874449560323,-0.102722,0.518799,-0.699341,-0.480896
1541874449583304,-0.10022,0.512146,-0.7229,-0.452942
1541874449597295,-0.0975952,0.505066,-0.744568,-0.425537
1541874449620315,-0.0952759,0.498657,-0.763489,-0.39917
1541874449643385,-0.0927734,0.493103,-0.779602,-0.374878
1541874449697388,-0.0900269,0.487915,-0.792969,-0.353638
1541874449718444,-0.0886841,0.483093,-0.80365,-0.336121
1541874449721429,-0.09375,0.478149,-0.81073,-0.324463
1541874449765428,-0.102295,0.473206,-0.81543,-0.317383
1541874449771451,-0.113708,0.467163,-0.81842,-0.314697
1541874449773447,-0.142029,0.455017,-0.818909,-0.319824
1541874449791501,-0.160889,0.452698,-0.813782,-0.327087
1541874449813484,-0.183105,0.450684,-0.805603,-0.338379
1541874449828495,-0.203064,0.446472,-0.797668,-0.351074
1541874449851494,-0.222534,0.444519,-0.786987,-0.36554
1541874449873567,-0.241516,0.446106,-0.772705,-0.381592
1541874449888578,-0.260986,0.44751,-0.756836,-0.39856
1541874449911544,-0.281128,0.446716,-0.740723,-0.41571
1541874449936562,-0.301025,0.444641,-0.723877,-0.433289
1541874449948586,-0.319092,0.443176,-0.7052,-0.452271
1541874449971642,-0.334534,0.442688,-0.68457,-0.472778
1541874449993625,-0.347168,0.443054,-0.662231,-0.49469
1541874450008637,-0.356689,0.444275,-0.638062,-0.518005
1541874450031636,-0.362793,0.446289,-0.612366,-0.54248
1541874450062714,-0.365479,0.448669,-0.585815,-0.567444
1541874450071667,-0.365601,0.450928,-0.559265,-0.591858
1541874450107695,-0.364075,0.452576,-0.533325,-0.61499
1541874450122718,-0.362183,0.453491,-0.508484,-0.636169
1541874450167746,-0.361084,0.453125,-0.48584,-0.654419
1541874450191778,-0.362122,0.451355,-0.467224,-0.668518
1541874450200789,-0.362732,0.450317,-0.455078,-0.677185
1541874450253825,-0.365234,0.450684,-0.443909,-0.682983
1541874450275847,-0.363342,0.453979,-0.44342,-0.682129
1541874450326877,-0.357666,0.464478,-0.45105,-0.673035
1541874450348939,-0.352722,0.473572,-0.457581,-0.664795
1541874450350941,-0.340149,0.489441,-0.473999,-0.648193
1541874450365914,-0.333557,0.495056,-0.487061,-0.637573
1541874450400945,-0.326782,0.500549,-0.504089,-0.623413
1541874450402927,-0.319763,0.50592,-0.524536,-0.605591
1541874450413955,-0.312805,0.510925,-0.547241,-0.584534
1541874450428963,-0.306274,0.514832,-0.570496,-0.56189
1541874450450980,-0.300232,0.516785,-0.59375,-0.538818
1541874450473985,-0.293152,0.51709,-0.617004,-0.515808
1541874450492051,-0.283875,0.518433,-0.637817,-0.493896
1541874450514015,-0.272888,0.52063,-0.656738,-0.472534
1541874450529037,-0.26178,0.52002,-0.677063,-0.450256
1541874450549097,-0.250854,0.51709,-0.697632,-0.427856
1541874450571075,-0.239563,0.513367,-0.717163,-0.405945
1541874450589074,-0.228271,0.508667,-0.735596,-0.384827
1541874450609091,-0.217773,0.502197,-0.75354,-0.364197
1541874450631125,-0.208191,0.49353,-0.770874,-0.344849
1541874450649140,-0.198792,0.48407,-0.786743,-0.327576
1541874450670137,-0.188965,0.476013,-0.799927,-0.312927
1541874450694156,-0.181885,0.469788,-0.809021,-0.302979
1541874450717190,-0.174866,0.464783,-0.815918,-0.296204
1541874450730185,-0.169678,0.460999,-0.820129,-0.293457
1541874450751221,-0.166199,0.459534,-0.82074,-0.296082
1541874450769235,-0.164001,0.461243,-0.817505,-0.303406
1541874450791246,-0.165344,0.466187,-0.810303,-0.314331
1541874450811269,-0.173279,0.472839,-0.799072,-0.328491
1541874450829281,-0.184204,0.474182,-0.789001,-0.344543
1541874450850298,-0.198364,0.47113,-0.779846,-0.361389
1541874450871311,-0.212341,0.468262,-0.769897,-0.377991
1541874450889328,-0.225342,0.468689,-0.757507,-0.394653
1541874450910344,-0.237854,0.470764,-0.743408,-0.411316
1541874450934365,-0.249878,0.471497,-0.729553,-0.427856
1541874450949375,-0.260986,0.47168,-0.715637,-0.444214
1541874450970392,-0.269897,0.474487,-0.699524,-0.461243
1541874450991444,-0.276184,0.480469,-0.680603,-0.479248
1541874451009420,-0.280457,0.487732,-0.659973,-0.497925
1541874451031421,-0.283752,0.494995,-0.638611,-0.516418
1541874451058461,-0.286438,0.502869,-0.616272,-0.53418
1541874451069470,-0.289429,0.510681,-0.593262,-0.550903
1541874451091470,-0.293213,0.518127,-0.569946,-0.566345
1541874451114500,-0.297974,0.52478,-0.546936,-0.580261
1541874451136505,-0.302734,0.53125,-0.523682,-0.593201
1541874451159522,-0.3078,0.537231,-0.501038,-0.604675
1541874451188544,-0.312561,0.542969,-0.479248,-0.614685
1541874451190546,-0.317383,0.548096,-0.45929,-0.622864
1541874451234596,-0.319092,0.55249,-0.444458,-0.628845
1541874451248610,-0.321594,0.556213,-0.432678,-0.632507
1541874451251609,-0.325256,0.559021,-0.423218,-0.634583
1541874451272650,-0.327393,0.562256,-0.414063,-0.636597
1541874451291639,-0.326172,0.566528,-0.404114,-0.639832
1541874451315646,-0.32135,0.571899,-0.393738,-0.643982
1541874451338672,-0.313477,0.578247,-0.38446,-0.647766
1541874451377705,-0.304871,0.584656,-0.377808,-0.650024
1541874451391724,-0.298157,0.588989,-0.375244,-0.650757
1541874451393705,-0.293152,0.59082,-0.37677,-0.650391
1541874451422745,-0.287415,0.591553,-0.381348,-0.649658
1541874451443768,-0.279602,0.592041,-0.388916,-0.648193
1541874451466782,-0.271423,0.591553,-0.399536,-0.64563
1541874451488834,-0.263489,0.588928,-0.413452,-0.642517
1541874451491798,-0.250977,0.585388,-0.430847,-0.639343
1541874451524862,-0.234314,0.581543,-0.44873,-0.636902
1541874451531833,-0.213013,0.577209,-0.466248,-0.635681
1541874451555838,-0.186951,0.573975,-0.482239,-0.634888
1541874451578882,-0.157104,0.571899,-0.496643,-0.633789
1541874451600869,-0.127319,0.569397,-0.511047,-0.631226
1541874451639899,-0.100037,0.564941,-0.526245,-0.627625
1541874451681952,-0.0762939,0.558472,-0.542114,-0.62323
1541874451692950,-0.0557251,0.550415,-0.557434,-0.61908
1541874451735993,-0.0380249,0.541748,-0.571472,-0.615234
1541874451745989,-0.0149536,0.526245,-0.59137,-0.61084
1541874451752000,-0.00280762,0.512939,-0.600281,-0.613647
1541874451788035,0.000549316,0.509888,-0.599243,-0.617188
1541874451791018,0.000488281,0.508362,-0.59552,-0.62207
1541874451812050,-0.00305176,0.508118,-0.589172,-0.628296
1541874451834052,-0.00891113,0.509094,-0.580078,-0.635803
1541874451863085,-0.0161133,0.511047,-0.567749,-0.645203
1541874451878086,-0.0239258,0.513794,-0.552002,-0.656372
1541874451899158,-0.0283203,0.516602,-0.534668,-0.668213
1541874451916116,-0.0327148,0.52002,-0.51532,-0.680481
1541874451970172,-0.0377808,0.522339,-0.4953,-0.693176
1541874451982182,-0.0430298,0.52356,-0.47467,-0.706238
1541874452066254,-0.0504761,0.527222,-0.427124,-0.732849
1541874452089306,-0.0510254,0.533936,-0.369568,-0.758789
1541874452104263,-0.0491333,0.539734,-0.31012,-0.781067
1541874452150299,-0.0501099,0.5448,-0.254089,-0.797607
1541874452172353,-0.0512085,0.54718,-0.227051,-0.804016
1541874452173321,-0.0519409,0.549561,-0.200195,-0.809448
1541874452405501,-0.0519409,0.552124,-0.173401,-0.813904
1541874452426536,-0.0515137,0.554688,-0.14679,-0.817383
1541874452442548,-0.0958862,0.588867,-0.0172729,-0.802368
1541874452448540,-0.0910645,0.589539,-0.0209961,-0.802307
1541874452463564,-0.0853271,0.589294,-0.026001,-0.802979
1541874452472572,-0.0803223,0.588684,-0.0325317,-0.803711
1541874452493586,-0.0770874,0.587708,-0.0410156,-0.804382
1541874452515598,-0.0760498,0.58667,-0.0512085,-0.804626
1541874452546630,-0.0779419,0.585327,-0.0626831,-0.804626
1541874452599652,-0.0822754,0.583008,-0.0753174,-0.80481
1541874452628732,-0.0860596,0.579834,-0.0878296,-0.80542
1541874452653696,-0.0870361,0.571106,-0.111267,-0.808655
1541874452675732,-0.0836182,0.565613,-0.123291,-0.811096
1541874452696732,-0.0700073,0.554749,-0.152954,-0.81488
1541874452698730,-0.0621948,0.5495,-0.169861,-0.815674
1541874452750791,-0.0551758,0.54248,-0.187378,-0.817078
1541874452772805,-0.0482788,0.536499,-0.204346,-0.817383
1541874452773789,-0.0408325,0.53064,-0.220764,-0.817383
1541874452846877,-0.0328979,0.525696,-0.236206,-0.816528
1541874452862862,-0.0268555,0.521484,-0.250916,-0.815125
1541874452885896,-0.0194702,0.512024,-0.290222,-0.808228
1541874452958989,-0.0202637,0.510254,-0.302185,-0.804993
1541874452961960,-0.022583,0.509399,-0.31366,-0.801025
1541874452982953,-0.0261841,0.509399,-0.325073,-0.796387
1541874452986977,-0.0464478,0.512451,-0.35968,-0.778381
1541874453010030,-0.0536499,0.513916,-0.370544,-0.771851
1541874453017000,-0.0591431,0.515381,-0.380249,-0.765686
1541874453033011,-0.062561,0.517029,-0.388611,-0.760071
1541874453062016,-0.06427,0.518738,-0.395508,-0.755249
1541874453077047,-0.0643311,0.520264,-0.401367,-0.751099
1541874453094044,-0.0629883,0.521606,-0.406677,-0.747437
1541874453116059,-0.0608521,0.522766,-0.412415,-0.743652
1541874453139089,-0.0595093,0.523376,-0.419067,-0.739563
1541874453161110,-0.059021,0.523376,-0.426331,-0.735413
1541874453183132,-0.0591431,0.523071,-0.434021,-0.73114
1541874453214155,-0.0593872,0.522827,-0.441772,-0.726685
1541874453216150,-0.0593872,0.523132,-0.449158,-0.721863
1541874453236168,-0.0594482,0.523926,-0.456726,-0.716492
1541874453266188,-0.0593872,0.524414,-0.465271,-0.710693
1541874453273182,-0.0597534,0.523987,-0.474976,-0.704468
1541874453296220,-0.06073,0.522705,-0.485474,-0.698181
1541874453317249,-0.0614014,0.521301,-0.495728,-0.691956
1541874453341272,-0.0613403,0.520325,-0.504944,-0.685974
1541874453363268,-0.0604858,0.519775,-0.513489,-0.680115
1541874453384289,-0.0593872,0.519958,-0.521362,-0.674072
1541874453393286,-0.0581055,0.520264,-0.529297,-0.667725
1541874453439331,-0.0571289,0.520203,-0.537415,-0.661316
1541874453441313,-0.0557861,0.519714,-0.546021,-0.654785
1541874453461330,-0.053772,0.519104,-0.554749,-0.648071
1541874453476356,-0.0504761,0.518921,-0.563354,-0.64093
1541874453497376,-0.0460815,0.519104,-0.572144,-0.633362
1541874453519390,-0.0415039,0.518921,-0.581726,-0.624939
1541874453544412,-0.0375977,0.518066,-0.592285,-0.615967
1541874453564429,-0.0340576,0.51709,-0.603271,-0.606262
1541874453573418,-0.0304565,0.516113,-0.614868,-0.59552
1541874453596435,-0.0267944,0.514954,-0.627075,-0.583862
1541874453618453,-0.0228882,0.513,-0.639893,-0.571716
1541874453640470,-0.0188599,0.510681,-0.652588,-0.559509
1541874453656484,-0.0145874,0.508728,-0.66449,-0.547241
1541874453693531,-0.00964355,0.507385,-0.675415,-0.535156
1541874453695525,-0.00463867,0.506287,-0.685181,-0.523682
1541874453716530,0.000915527,0.505615,-0.693542,-0.513184
1541874453737557,0.00653076,0.506042,-0.700256,-0.503601
1541874453752559,0.0134888,0.507568,-0.70636,-0.493225
1541874453775596,0.0204468,0.50824,-0.713379,-0.482117
1541874453798613,0.0264893,0.506775,-0.721558,-0.471008
1541874453812608,0.0321045,0.504272,-0.730286,-0.459778
1541874453835642,0.0385742,0.502808,-0.738342,-0.447876
1541874453858661,0.045105,0.501709,-0.745911,-0.435852
1541874453872663,0.0521851,0.499634,-0.754395,-0.422546
1541874453895670,0.0595703,0.497009,-0.763245,-0.408569
1541874453918689,0.067749,0.493896,-0.772156,-0.394104
1541874453932702,0.0759888,0.49115,-0.780762,-0.378723
1541874453955738,0.0847778,0.488403,-0.789307,-0.362305
1541874453978757,0.0928345,0.485229,-0.797729,-0.345886
1541874453999752,0.100891,0.481445,-0.805786,-0.329834
1541874454015765,0.109314,0.478088,-0.812927,-0.314087
1541874454038783,0.117737,0.475281,-0.819275,-0.298523
1541874454059799,0.125916,0.472107,-0.825195,-0.283325
1541874454083857,0.133362,0.468384,-0.831177,-0.268372
1541874454098850,0.138245,0.464966,-0.836853,-0.253723
1541874454119902,0.140259,0.462646,-0.840881,-0.243408
1541874454135859,0.1427,0.462769,-0.842773,-0.234985
1541874454158933,0.145386,0.460022,-0.845398,-0.229309
1541874454179948,0.152466,0.458496,-0.846619,-0.223083
1541874454195906,0.15979,0.455078,-0.848938,-0.216248
1541874454218944,0.164307,0.45166,-0.852112,-0.207397
1541874454239960,0.164429,0.445068,-0.857666,-0.198425
1541874454255008,0.162903,0.438843,-0.863281,-0.188599
1541874454261974,0.160339,0.435547,-0.867737,-0.177795
1541874454283998,0.155212,0.433838,-0.871948,-0.165649
1541874454306013,0.147156,0.432373,-0.876343,-0.152893
1541874454332028,0.137634,0.432007,-0.88031,-0.139709
1541874454345058,0.126831,0.432007,-0.883972,-0.126404
1541874454366041,0.113525,0.431152,-0.887817,-0.114136
1541874454381054,0.0996704,0.430176,-0.891357,-0.1026
1541874454404089,0.0861206,0.431335,-0.893372,-0.0917969
1541874454426106,0.0725708,0.434326,-0.894165,-0.0811768
1541874454441102,0.059021,0.436035,-0.895203,-0.0707397
1541874454464172,0.0459595,0.435974,-0.89679,-0.0598145
1541874454486154,0.0336304,0.435242,-0.898376,-0.0483398
1541874454501165,0.0209961,0.435181,-0.899353,-0.0369263
1541874454524219,0.00726318,0.43634,-0.899353,-0.0267944
1541874454546206,-0.00750732,0.437561,-0.898987,-0.0177002
1541874454561197,-0.0231934,0.43689,-0.89917,-0.00946045
1541874454584230,-0.0394287,0.434204,-0.899963,-0.00201416
1541874454602281,-0.0550537,0.429016,-0.901611,0.00482178
1541874454621260,-0.0697021,0.423767,-0.903015,0.0106812
1541874454644278,-0.0845337,0.42218,-0.902466,0.0151367
1541874454662273,-0.0991821,0.421997,-0.901001,0.0186157
1541874454681308,-0.113464,0.417908,-0.901123,0.0214233
1541874454711311,-0.125793,0.408447,-0.903748,0.0241089
1541874454722374,-0.137695,0.399597,-0.905945,0.0251465
1541874454741337,-0.149292,0.395752,-0.905823,0.0241089
1541874454764372,-0.159424,0.395752,-0.904114,0.0237427
1541874454782382,-0.167603,0.390198,-0.905029,0.0253906
1541874454809409,-0.172791,0.379089,-0.908691,0.0280762
1541874454824420,-0.17572,0.373413,-0.9104,0.0302124
1541874454842423,-0.175842,0.371643,-0.911072,0.03125
1541874454869449,-0.174255,0.370422,-0.911804,0.0319824
1541874454892473,-0.172424,0.368408,-0.912964,0.0324707
1541874454909486,-0.171387,0.366272,-0.914001,0.0327759
1541874454921496,-0.171204,0.364746,-0.914673,0.0333862
1541874454946515,-0.171082,0.36322,-0.915222,0.0343018
1541874454961527,-0.170593,0.361755,-0.915833,0.0357666
1541874454981534,-0.169312,0.360291,-0.916626,0.0371704
1541874455011562,-0.167725,0.35907,-0.917358,0.0379639
1541874455021566,-0.164978,0.358582,-0.91803,0.0378418
1541874455041589,-0.161926,0.357849,-0.918884,0.0366821
1541874455063590,-0.158569,0.356384,-0.920166,0.0342407
1541874455081602,-0.154663,0.353943,-0.921875,0.0308838
1541874455104657,-0.150146,0.350891,-0.92395,0.026123
1541874455123655,-0.144836,0.348206,-0.925964,0.0206299
1541874455146673,-0.139648,0.346008,-0.927673,0.0153198
1541874455161687,-0.134033,0.343262,-0.929565,0.0101318
1541874455183703,-0.127747,0.341064,-0.931335,0.00518799
1541874455209724,-0.120605,0.340271,-0.932556,0
1541874455221769,-0.112,0.340881,-0.933411,-0.00512695
1541874455243784,-0.101563,0.343201,-0.933716,-0.00872803
1541874455261745,-0.0918579,0.346313,-0.933533,-0.012146
1541874455281779,-0.0811768,0.35022,-0.933044,-0.0153198
1541874455303779,-0.0703125,0.354187,-0.932373,-0.0187378
1541874455321790,-0.0596924,0.358215,-0.931458,-0.0227051
1541874455341825,-0.0490112,0.360168,-0.931274,-0.026001
1541874455363843,-0.0392456,0.361023,-0.931274,-0.0300293
1541874455381849,-0.0305176,0.365662,-0.929626,-0.0351563
1541874455402855,-0.020813,0.374634,-0.926086,-0.0397949
1541874455431877,-0.00976563,0.383118,-0.922607,-0.0440063
1541874455441886,0.00183105,0.389343,-0.919861,-0.0475464
1541874455462917,0.0127563,0.395996,-0.916809,-0.0507202
1541874455483938,0.0234985,0.402588,-0.913513,-0.053833
1541874455506956,0.0327759,0.406921,-0.911072,-0.0575562
1541874455522956,0.0410156,0.40918,-0.909424,-0.0621338
1541874455543980,0.0482178,0.408875,-0.908813,-0.0678711
1541874455561981,0.0551147,0.408447,-0.908081,-0.0747681
1541874455582997,0.0608521,0.410706,-0.905945,-0.0831909
1541874455604032,0.0654297,0.414124,-0.903137,-0.0929565
1541874455622046,0.0682373,0.416748,-0.900513,-0.103821
1541874455643062,0.0697632,0.418579,-0.898071,-0.115967
1541874455665080,0.0703125,0.420288,-0.895264,-0.130371
1541874455686077,0.0693359,0.424622,-0.890747,-0.146545
1541874455704107,0.0671387,0.429443,-0.88562,-0.163757
1541874455725126,0.0640259,0.432495,-0.880798,-0.181885
1541874455741120,0.0592651,0.435547,-0.875732,-0.199951
1541874455771146,0.0523682,0.440308,-0.869568,-0.21759
1541874455785155,0.0426025,0.447876,-0.861389,-0.235901
1541874455801168,0.02948,0.456909,-0.851624,-0.255188
1541874455824198,0.0131226,0.465881,-0.840881,-0.275269
1541874455845218,-0.00598145,0.474915,-0.828796,-0.295898
1541874455861223,-0.0268555,0.484741,-0.815125,-0.316101
1541874455891257,-0.0485229,0.495056,-0.800354,-0.334778
1541874455905266,-0.0700684,0.504639,-0.785461,-0.351379
1541874455928281,-0.0921631,0.510376,-0.773621,-0.364075
1541874455943279,-0.113159,0.512573,-0.763855,-0.375488
1541874455964316,-0.131897,0.514893,-0.754028,-0.385925
1541874455981328,-0.14856,0.519165,-0.742432,-0.396545
1541874456003336,-0.163208,0.526367,-0.727478,-0.408813
1541874456024362,-0.175354,0.537598,-0.70752,-0.42395
1541874456041358,-0.184143,0.552063,-0.682312,-0.442444
1541874456064393,-0.190552,0.565063,-0.656311,-0.462341
1541874456092418,-0.196777,0.575073,-0.630981,-0.482239
1541874456108409,-0.20282,0.582703,-0.60675,-0.501282
1541874456131429,-0.208679,0.588562,-0.583557,-0.519226
1541874456206505,-0.213562,0.594238,-0.560669,-0.535706
1541874456209507,-0.217407,0.599731,-0.538147,-0.550964
1541874456237510,-0.220215,0.604187,-0.516785,-0.565186
1541874456239532,-0.220032,0.610291,-0.478394,-0.591858
1541874456245517,-0.216431,0.612732,-0.460999,-0.60437
1541874456264551,-0.212097,0.61554,-0.44281,-0.616516
1541874456281564,-0.204468,0.617981,-0.427612,-0.627258
1541874456311589,-0.196228,0.619263,-0.414185,-0.637634
1541874456332604,-0.185974,0.619751,-0.401489,-0.648193
1541874456341613,-0.173279,0.619812,-0.389648,-0.658752
1541874456371635,-0.15918,0.619324,-0.379089,-0.668945
1541874456447712,-0.144714,0.618042,-0.370361,-0.678162
1541874456498730,-0.130615,0.61615,-0.363403,-0.686523
1541874456552777,-0.0917358,0.608521,-0.347961,-0.707275
1541874456641828,-0.0678101,0.603027,-0.338989,-0.718933
1541874456655838,-0.0331421,0.597839,-0.321411,-0.733643
1541874456686863,0.000305176,0.587891,-0.292786,-0.754089
1541874456688865,0.000427246,0.585388,-0.286987,-0.758301
1541874456717888,0.000610352,0.583374,-0.281006,-0.762024
1541874456729911,0.0020752,0.582764,-0.273987,-0.765076
1541874456860000,0.00463867,0.582336,-0.266174,-0.768127
1541874456865004,0.00738525,0.582031,-0.257019,-0.771484
1541874456912061,0.0283203,0.583313,-0.193787,-0.78833
1541874456935059,0.0345459,0.583496,-0.178711,-0.791504
1541874456966138,0.0495605,0.583496,-0.146423,-0.797302
1541874456995124,0.0566406,0.583435,-0.130066,-0.799683
1541874457016177,0.0689697,0.583923,-0.0968628,-0.803101
1541874457068220,0.0744019,0.584778,-0.0808105,-0.803711
1541874457143221,0.078125,0.58606,-0.065979,-0.803833
1541874457152244,0.0793457,0.58783,-0.0525513,-0.803345
1541874457182315,0.0759277,0.596802,-0.0183716,-0.798584
1541874457183255,0.0740356,0.607239,0.0118408,-0.790955
1541874457205290,0.0750122,0.609985,0.0218506,-0.788574
1541874457209288,0.0769043,0.612427,0.0316162,-0.786133
1541874457228303,0.0796509,0.614502,0.0410156,-0.783813
1541874457256310,0.0826416,0.616333,0.0494995,-0.781555
1541874457271324,0.0857544,0.617859,0.0565796,-0.779541
1541874457301347,0.0892334,0.619812,0.0603027,-0.777344
1541874457324383,0.0894165,0.622864,0.057373,-0.775085
1541874457326385,0.083252,0.627563,0.0476074,-0.772644
1541874457452467,0.0769043,0.632507,0.0354614,-0.769897
1541874457474501,0.0737915,0.636414,0.0238647,-0.767456
1541874457489513,0.0991211,0.636475,-0.00805664,-0.764832
1541874457491495,0.109436,0.632446,-0.0118408,-0.766785
1541874457504520,0.120178,0.627808,-0.0177612,-0.768799
1541874457527542,0.131104,0.622986,-0.0258789,-0.770752
1541874457564563,0.141602,0.617981,-0.0357666,-0.772522
1541874457625611,0.151611,0.612854,-0.0466309,-0.774109
1541874457639630,0.160767,0.607788,-0.0578613,-0.775513
1541874457676697,0.174866,0.597534,-0.0802612,-0.778442
1541874457679665,0.179871,0.59259,-0.0905762,-0.779907
1541874457708686,0.18396,0.588196,-0.0996094,-0.781189
1541874457719694,0.187256,0.584229,-0.107117,-0.78241
1541874457731703,0.191772,0.578308,-0.117371,-0.784241
1541874457751754,0.193115,0.57666,-0.11969,-0.78479
1541874457773717,0.193542,0.575928,-0.119751,-0.785217
1541874457788729,0.193787,0.576111,-0.116821,-0.7854
1541874457817754,0.193726,0.577148,-0.110901,-0.785522
1541874457833764,0.192261,0.578369,-0.10321,-0.786072
1541874457856796,0.188904,0.5802,-0.0943604,-0.786621
1541874457894823,0.184753,0.581604,-0.085144,-0.787659
1541874458096990,0.181335,0.582703,-0.0753784,-0.788635
1541874458098988,0.180359,0.585144,-0.0636597,-0.788025
1541874458105983,0.179871,0.588989,-0.0505981,-0.786255
1541874458118988,0.180969,0.616455,0.0914307,-0.760803
1541874458140023,0.188965,0.615417,0.107666,-0.757629
1541874458149013,0.196167,0.614258,0.123169,-0.754333
1541874458170048,0.202271,0.613098,0.137817,-0.751099
1541874458194084,0.206543,0.612244,0.151611,-0.747986
1541874458223090,0.209595,0.612061,0.164795,-0.744507
1541874458237101,0.213257,0.612061,0.177979,-0.740417
1541874458246088,0.216675,0.611694,0.190186,-0.736694
1541874458269145,0.220154,0.610596,0.200684,-0.733765
1541874458299145,0.224304,0.609497,0.210144,-0.730774
1541874458323171,0.228882,0.608826,0.219177,-0.727234
1541874458367202,0.234009,0.608215,0.2276,-0.723511
1541874458369184,0.239197,0.607727,0.235107,-0.719849
1541874458374204,0.244019,0.6073,0.241577,-0.71637
1541874458397226,0.248962,0.607178,0.246704,-0.713074
1541874458412238,0.25415,0.607117,0.25061,-0.7099
1541874458457273,0.26001,0.607117,0.253357,-0.706787
1541874458472285,0.266602,0.6073,0.254517,-0.703796
1541874458478280,0.273315,0.607239,0.254944,-0.701111
1541874458496304,0.280334,0.60675,0.255432,-0.698547
1541874458509313,0.287354,0.605347,0.256714,-0.696472
1541874458530366,0.294739,0.602661,0.258301,-0.695129
1541874458546323,0.302856,0.598755,0.259766,-0.694458
1541874458570361,0.310974,0.594299,0.259766,-0.694702
1541874458593361,0.319031,0.589417,0.258362,-0.69574
1541874458616393,0.327759,0.583679,0.25647,-0.697205
1541874458636394,0.337891,0.576782,0.254761,-0.69873
1541874458652410,0.34967,0.56842,0.25354,-0.700195
1541874458667439,0.362854,0.558472,0.253845,-0.701416
1541874458688455,0.378174,0.545776,0.255859,-0.702576
1541874458694441,0.394592,0.53125,0.257202,-0.704163
1541874458716477,0.408997,0.517151,0.255798,-0.70697
1541874458742479,0.420776,0.503723,0.252563,-0.710938
1541874458761507,0.431091,0.490356,0.248352,-0.715515
1541874458803545,0.440674,0.476501,0.244019,-0.720581
1541874458816560,0.449158,0.462708,0.23938,-0.72583
1541874458818537,0.457031,0.449585,0.235352,-0.730469
1541874458839553,0.463379,0.437622,0.231689,-0.734924
1541874458862592,0.46814,0.42688,0.228394,-0.739197
1541874458915629,0.471436,0.417419,0.225647,-0.743347
1541874458937630,0.473145,0.409485,0.223633,-0.747314
1541874458952643,0.474854,0.398865,0.225159,-0.751526
1541874458974713,0.475098,0.395447,0.229736,-0.751709
1541874459002716,0.475647,0.392639,0.23645,-0.750732
1541874459057735,0.476563,0.390259,0.244934,-0.748718
1541874459063745,0.477234,0.388855,0.254822,-0.745728
1541874459086803,0.475891,0.390686,0.27832,-0.737122
1541874459089805,0.473633,0.394287,0.29126,-0.731689
1541874459101779,0.470093,0.399353,0.304626,-0.725769
1541874459124797,0.465088,0.405334,0.31781,-0.720032
1541874459145808,0.459106,0.411865,0.330383,-0.714417
1541874459154802,0.453186,0.418579,0.342407,-0.708618
1541874459174829,0.448303,0.424805,0.354431,-0.702087
1541874459204897,0.445313,0.429626,0.367004,-0.694519
1541874459212866,0.44458,0.432739,0.380249,-0.685913
1541874459241889,0.445007,0.434387,0.394226,-0.676636
1541874459256900,0.446045,0.435059,0.408203,-0.667175
1541874459272905,0.44696,0.435242,0.422546,-0.65741
1541874459293930,0.447754,0.434753,0.437683,-0.647217
1541874459316948,0.448669,0.433533,0.453552,-0.636353
1541874459332943,0.450439,0.431458,0.469482,-0.624878
1541874459353977,0.452881,0.428467,0.485413,-0.612915
1541874459376995,0.455261,0.425354,0.500732,-0.60083
1541874459395005,0.457581,0.422424,0.514893,-0.589111
1541874459414011,0.4599,0.419983,0.527527,-0.577698
1541874459437042,0.462219,0.417847,0.538757,-0.566956
1541874459453048,0.464783,0.415894,0.548584,-0.556763
1541874459474071,0.467346,0.414368,0.557068,-0.547302
1541874459497089,0.469971,0.413757,0.564148,-0.538147
1541874459521108,0.472473,0.414063,0.569885,-0.529602
1541874459534121,0.475342,0.414917,0.574402,-0.521423
1541874459557139,0.478699,0.415771,0.578186,-0.513428
1541874459579150,0.483215,0.415894,0.581299,-0.505554
1541874459594166,0.488281,0.415344,0.584106,-0.497803
1541874459617184,0.494263,0.413513,0.586121,-0.490967
1541874459635194,0.500244,0.411072,0.587341,-0.485535
1541874459657196,0.504761,0.409607,0.586487,-0.483154
1541874459677230,0.508179,0.409607,0.583069,-0.483643
1541874459701287,0.510681,0.410706,0.577637,-0.486572
1541874459730273,0.512634,0.411743,0.571289,-0.491089
1541874459740262,0.514771,0.411316,0.565369,-0.496094
1541874459762298,0.517517,0.408569,0.560486,-0.501099
1541874459774307,0.520996,0.403381,0.556763,-0.505798
1541874459797327,0.524719,0.39679,0.553162,-0.510986
1541874459814374,0.527771,0.389893,0.54895,-0.517761
1541874459836352,0.531128,0.381836,0.544006,-0.525391
1541874459859408,0.535339,0.371765,0.539063,-0.533447
1541874459888432,0.539917,0.359131,0.533997,-0.54248
1541874459894437,0.545288,0.344543,0.528564,-0.551758
1541874459917419,0.550903,0.329224,0.523193,-0.560669
1541874459934428,0.556519,0.313843,0.516785,-0.569824
1541874459961455,0.560608,0.300415,0.510132,-0.578918
1541874459979450,0.562927,0.288757,0.504028,-0.587952
1541874459994478,0.563965,0.278259,0.499084,-0.59613
1541874460021537,0.564209,0.268372,0.4953,-0.603516
1541874460032511,0.564758,0.259033,0.492737,-0.609253
1541874460054509,0.564941,0.250977,0.49115,-0.613647
1541874460074543,0.565186,0.243713,0.490601,-0.61676
1541874460092554,0.565063,0.237183,0.491516,-0.618713
1541874460114565,0.564392,0.231628,0.493896,-0.619568
1541874460135584,0.56366,0.226746,0.498291,-0.618469
1541874460164614,0.564758,0.221252,0.504761,-0.614197
1541874460173621,0.566345,0.215881,0.513184,-0.607666
1541874460194640,0.566589,0.211975,0.523376,-0.600098
1541874460217651,0.566589,0.209106,0.534729,-0.591003
1541874460233665,0.567505,0.207153,0.546021,-0.580383
1541874460254719,0.568665,0.207336,0.556946,-0.568726
1541874460278699,0.569153,0.209717,0.567932,-0.556335
1541874460293696,0.56897,0.213623,0.579224,-0.543213
1541874460314768,0.568604,0.217773,0.59082,-0.529297
1541874460330724,0.568726,0.220581,0.602905,-0.514221
1541874460353743,0.569763,0.221558,0.615295,-0.497681
1541874460374815,0.571899,0.220703,0.627625,-0.479858
1541874460390773,0.57489,0.218506,0.639282,-0.461548
1541874460413791,0.577942,0.216003,0.649902,-0.443726
1541874460434827,0.580872,0.213501,0.659546,-0.426575
1541874460450820,0.583496,0.211182,0.668213,-0.410278
1541874460473841,0.585449,0.208252,0.676941,-0.394348
1541874460496856,0.58728,0.203369,0.686096,-0.378113
1541874460510868,0.5896,0.196533,0.694885,-0.361694
1541874460533884,0.592529,0.188843,0.702942,-0.344971
1541874460556918,0.595337,0.181824,0.710144,-0.328918
1541874460570935,0.597778,0.176025,0.716248,-0.313904
1541874460593932,0.600281,0.171631,0.721252,-0.299866
1541874460616966,0.602722,0.168335,0.725342,-0.286682
1541874460637982,0.605286,0.165771,0.728638,-0.274109
1541874460653989,0.607849,0.164368,0.731018,-0.262756
1541874460677017,0.610168,0.164978,0.732361,-0.253052
1541874460698027,0.612793,0.166504,0.732605,-0.244995
1541874460714045,0.61554,0.168152,0.731995,-0.238586
1541874460736045,0.618225,0.16925,0.73114,-0.233459
1541874460758062,0.621277,0.168701,0.72998,-0.229309
1541874460774089,0.624634,0.166382,0.72876,-0.225769
1541874460796148,0.62793,0.162292,0.727722,-0.222961
1541874460817129,0.630615,0.157837,0.726929,-0.22113
1541874460834141,0.633118,0.152893,0.726074,-0.220093
1541874460856157,0.635376,0.147827,0.725342,-0.219666
1541874460877174,0.637573,0.141357,0.724731,-0.21936
1541874460894187,0.639587,0.132935,0.724487,-0.21991
1541874460917197,0.640381,0.125671,0.723816,-0.223999
1541874460937256,0.640991,0.11969,0.721863,-0.231506
1541874460954236,0.641479,0.114868,0.719238,-0.240784
1541874460976247,0.641296,0.109375,0.716858,-0.250732
1541874460997251,0.640442,0.101624,0.71521,-0.260681
1541874461014298,0.63916,0.0910034,0.713928,-0.270996
1541874461036281,0.637451,0.0774536,0.712036,-0.283813
1541874461057315,0.63501,0.0638428,0.709717,-0.298157
1541874461074328,0.631775,0.0498047,0.707336,-0.31311
1541874461096328,0.627625,0.0342407,0.705261,-0.32782
1541874461117346,0.623047,0.0161133,0.703491,-0.341431
1541874461134411,0.617859,-0.00341797,0.702026,-0.354065
1541874461156374,0.612732,-0.0236816,0.700317,-0.365479
1541874461177410,0.607727,-0.0430298,0.698303,-0.375732
1541874461193421,0.602722,-0.0593872,0.696228,-0.385254
1541874461216421,0.598328,-0.0722656,0.694336,-0.393188
1541874461237457,0.593872,-0.0828857,0.693298,-0.399597
1541874461253469,0.589844,-0.09198,0.693176,-0.40387
1541874461276483,0.586548,-0.100403,0.693665,-0.405823
1541874461297504,0.583984,-0.108093,0.694702,-0.405762
1541874461313517,0.58252,-0.114319,0.696045,-0.403809
1541874461336515,0.582092,-0.118225,0.697937,-0.400085
1541874461357551,0.58252,-0.119873,0.700378,-0.394714
1541874461373558,0.583374,-0.11853,0.703491,-0.388123
1541874461396563,0.58429,-0.114685,0.707825,-0.380005
1541874461418599,0.586121,-0.109375,0.712463,-0.369995
1541874461433606,0.589478,-0.104309,0.716919,-0.3573
1541874461456611,0.593384,-0.0997314,0.72168,-0.342102
1541874461478636,0.597229,-0.0943604,0.727173,-0.324951
1541874461499662,0.60022,-0.0876465,0.733337,-0.307007
1541874461516676,0.603271,-0.0797119,0.739136,-0.288696
1541874461538693,0.60614,-0.0710449,0.744507,-0.270447
1541874461560725,0.608093,-0.0616455,0.749817,-0.253113
1541874461576719,0.609741,-0.0534668,0.754944,-0.235291
1541874461598735,0.611389,-0.0487671,0.759766,-0.215576
1541874461619792,0.613403,-0.0473633,0.76416,-0.193726
1541874461636751,0.614746,-0.0492554,0.768127,-0.171936
1541874461659796,0.61554,-0.0521851,0.771606,-0.151733
1541874461679803,0.615784,-0.0545654,0.774475,-0.133911
1541874461696817,0.615845,-0.0566406,0.776917,-0.11792
1541874461720836,0.615906,-0.0598755,0.778809,-0.102539
1541874461739851,0.615662,-0.0650024,0.780396,-0.0874023
1541874461756865,0.615417,-0.0702515,0.781555,-0.0736694
1541874461778879,0.614868,-0.0750732,0.782654,-0.060791
1541874461807905,0.614075,-0.0802612,0.78363,-0.0484009
1541874461816932,0.612976,-0.0847168,0.784668,-0.0366211
1541874461838912,0.611938,-0.0899658,0.785339,-0.024231
1541874461859945,0.611267,-0.0952759,0.785522,-0.0114136
1541874461876954,0.611084,-0.0996704,0.785217,0.000671387
1541874461898959,0.611511,-0.102295,0.784424,0.0120239
1541874461919992,0.612366,-0.102417,0.783569,0.0219727
1541874461936987,0.613525,-0.100647,0.782593,0.0308228
1541874461959004,0.614868,-0.0985718,0.781433,0.0388184
1541874461980020,0.616394,-0.0967407,0.78009,0.0460815
1541874461997056,0.617859,-0.09552,0.778687,0.0523071
1541874462019051,0.619385,-0.0944824,0.777222,0.0574341
1541874462040068,0.62085,-0.0935059,0.775879,0.0612793
1541874462057095,0.621826,-0.0930176,0.774902,0.0645752
1541874462079109,0.622253,-0.0941162,0.774109,0.067627
1541874462100134,0.622559,-0.0967407,0.773376,0.0701294
1541874462116147,0.62262,-0.100037,0.772705,0.0715942
1541874462139164,0.622742,-0.103088,0.772278,0.071228
1541874462160182,0.623169,-0.105713,0.771851,0.0686035
1541874462176175,0.623596,-0.105896,0.771912,0.0631714
1541874462199193,0.624268,-0.103333,0.772339,0.0546265
1541874462220226,0.625061,-0.100159,0.772766,0.0447388
1541874462236243,0.625305,-0.0987549,0.773254,0.0348511
1541874462259240,0.624695,-0.0996704,0.773987,0.0249023
1541874462280257,0.623413,-0.102539,0.774902,0.0145874
1541874462296269,0.621521,-0.10675,0.776062,0.00415039
1541874462319287,0.619019,-0.111572,0.777344,-0.00665283
1541874462341304,0.616089,-0.116516,0.778748,-0.0181274
1541874462356316,0.612793,-0.121887,0.780151,-0.0298462
1541874462379390,0.60968,-0.12793,0.781128,-0.0414429
1541874462401352,0.607117,-0.135254,0.781189,-0.0523682
1541874462416364,0.60498,-0.143921,0.780457,-0.0639038
1541874462439415,0.601746,-0.151917,0.780273,-0.0767212
1541874462461401,0.597717,-0.159729,0.780518,-0.0892334
1541874462482415,0.593384,-0.16925,0.780518,-0.0999756
1541874462499429,0.589722,-0.180664,0.77948,-0.109314
1541874462521445,0.586853,-0.191284,0.777771,-0.118408
1541874462542462,0.584778,-0.199097,0.77594,-0.127502
1541874462559476,0.583435,-0.204468,0.774231,-0.135376
1541874462581508,0.58313,-0.208252,0.7724,-0.141113
1541874462602529,0.583618,-0.210632,0.770813,-0.144409
1541874462619543,0.585022,-0.211731,0.769348,-0.14502
1541874462641540,0.587097,-0.210388,0.768494,-0.142822
1541874462662556,0.589417,-0.206299,0.768799,-0.137573
1541874462679570,0.592285,-0.20166,0.769287,-0.129333
1541874462701588,0.59613,-0.196716,0.769287,-0.118774
1541874462724606,0.600647,-0.18988,0.768921,-0.108765
1541874462739646,0.605103,-0.179626,0.768921,-0.101379
1541874462761635,0.609375,-0.16626,0.769287,-0.0956421
1541874462782651,0.613403,-0.153259,0.769592,-0.0892334
1541874462799666,0.616638,-0.142883,0.769897,-0.0806885
1541874462821681,0.618713,-0.135437,0.77063,-0.0702515
1541874462842698,0.619751,-0.131409,0.771484,-0.0578003
1541874462858711,0.619995,-0.130615,0.772339,-0.0439453
1541874462881729,0.619385,-0.131592,0.773315,-0.0303955
1541874462902745,0.61792,-0.132507,0.774719,-0.0180664
1541874462918758,0.616028,-0.133728,0.776245,-0.00646973
1541874462941791,0.61377,-0.136108,0.777588,0.00494385
1541874462962812,0.611206,-0.139404,0.77887,0.0161133
1541874462978816,0.608398,-0.142334,0.780212,0.0268555
1541874463001823,0.605774,-0.144897,0.781372,0.0368042
1541874463022895,0.603271,-0.146179,0.782593,0.0461426
1541874463038853,0.60083,-0.147217,0.783691,0.0556641
1541874463061871,0.598511,-0.148254,0.784485,0.0653687
1541874463082905,0.596741,-0.149841,0.784668,0.0755615
1541874463098919,0.59552,-0.151245,0.784241,0.0857544
1541874463121936,0.594971,-0.151489,0.783569,0.0950928
1541874463142953,0.594971,-0.150269,0.782715,0.103638
1541874463158965,0.595459,-0.147827,0.781677,0.111633
1541874463165956,0.596436,-0.144775,0.780396,0.119202
1541874463186983,0.597595,-0.142151,0.778931,0.125977
1541874463210006,0.598877,-0.139404,0.777588,0.131042
1541874463226001,0.60022,-0.136536,0.776489,0.134399
1541874463255022,0.601746,-0.132935,0.775696,0.135986
1541874463270034,0.603088,-0.129395,0.775146,0.136414
1541874463286064,0.604004,-0.126892,0.774841,0.136353
1541874463307082,0.604492,-0.126404,0.774597,0.136108
1541874463330100,0.605042,-0.126648,0.774353,0.134827
1541874463345093,0.606201,-0.12616,0.774048,0.131836
1541874463367130,0.607727,-0.124573,0.773743,0.127747
1541874463389146,0.609192,-0.123047,0.773682,0.122864
1541874463404158,0.610413,-0.122559,0.77356,0.117737
1541874463427213,0.610718,-0.121765,0.774353,0.111755
1541874463449194,0.610718,-0.120056,0.775757,0.103394
1541874463464205,0.610901,-0.118103,0.777222,0.0930176
1541874463487259,0.611145,-0.11676,0.778564,0.0814209
1541874463509241,0.611084,-0.116516,0.779846,0.0690308
1541874463526254,0.610352,-0.11731,0.781311,0.0563965
1541874463550273,0.609009,-0.11908,0.782898,0.0440063
1541874463569288,0.606812,-0.122253,0.784729,0.0314941
1541874463584300,0.604187,-0.126831,0.786438,0.0180054
1541874463607318,0.60144,-0.132751,0.787781,0.0032959
1541874463629336,0.597656,-0.140564,0.789185,-0.0128174
1541874463644346,0.593384,-0.149292,0.790344,-0.0293579
1541874463667362,0.588501,-0.158508,0.791443,-0.0461426
1541874463689363,0.583069,-0.168335,0.792236,-0.0629883
1541874463704390,0.577576,-0.178467,0.792542,-0.0796509
1541874463727393,0.572388,-0.188416,0.792175,-0.0961304
1541874463751433,0.567566,-0.19751,0.791382,-0.112183
1541874463764438,0.563171,-0.2052,0.790161,-0.127625
1541874463787460,0.559814,-0.211548,0.788452,-0.142029
1541874463809460,0.55719,-0.216553,0.786438,-0.155273
1541874463824469,0.555115,-0.220764,0.784363,-0.166809
1541874463847542,0.553894,-0.22406,0.782166,-0.176453
1541874463869507,0.554016,-0.226318,0.779663,-0.184326
1541874463884571,0.555237,-0.226868,0.777283,-0.189941
1541874463910576,0.557129,-0.225708,0.77533,-0.193604
1541874463929572,0.559875,-0.223145,0.773743,-0.194946
1541874463946584,0.563721,-0.220032,0.772278,-0.193298
1541874463967595,0.568542,-0.21637,0.770996,-0.188232
1541874463984615,0.57373,-0.211487,0.770386,-0.180298
1541874464006613,0.578796,-0.205505,0.770569,-0.170044
1541874464026682,0.583618,-0.199463,0.771118,-0.157898
1541874464044644,0.588318,-0.193481,0.77179,-0.14386
1541874464065661,0.592651,-0.187378,0.772766,-0.128174
1541874464086678,0.596252,-0.180603,0.77417,-0.111816
1541874464104704,0.599609,-0.174011,0.77533,-0.0946045
1541874464125757,0.602966,-0.168274,0.776001,-0.0765991
1541874464146737,0.605957,-0.163208,0.776306,-0.0588989
1541874464164736,0.608643,-0.15802,0.776367,-0.0423584
1541874464185780,0.610901,-0.152588,0.776367,-0.0268555
1541874464206789,0.612732,-0.148132,0.776184,-0.0117798
1541874464224784,0.613831,-0.145752,0.775818,0.00335693
1541874464247821,0.614136,-0.145569,0.775391,0.0181885
1541874464266837,0.613647,-0.146729,0.775085,0.0321045
1541874464284833,0.612671,-0.148987,0.774841,0.0447388
1541874464307864,0.611328,-0.151855,0.774597,0.0558472
1541874464326885,0.609863,-0.155029,0.774353,0.0654297
1541874464344877,0.608337,-0.158447,0.77417,0.0739136
1541874464367911,0.606812,-0.161865,0.773804,0.0814819
1541874464386966,0.605347,-0.165771,0.773376,0.088562
1541874464404925,0.604126,-0.16925,0.772827,0.0948486
1541874464427963,0.602966,-0.172241,0.772461,0.0999756
1541874464446977,0.602173,-0.174255,0.772217,0.103455
1541874464464973,0.601929,-0.175781,0.771729,0.105286
1541874464487992,0.602112,-0.176514,0.771362,0.105774
1541874464507024,0.602539,-0.176392,0.77124,0.104736
1541874464525031,0.603149,-0.175659,0.77124,0.102295
1541874464548055,0.603882,-0.174744,0.771362,0.0985107
1541874464567072,0.604797,-0.173401,0.771606,0.0935059
1541874464585086,0.605896,-0.171997,0.771667,0.0880127
1541874464607103,0.606995,-0.171143,0.771606,0.0825806
1541874464629103,0.608093,-0.170776,0.771423,0.0768433
1541874464644113,0.609131,-0.170288,0.771423,0.0695801
1541874464667150,0.611145,-0.168823,0.770935,0.0601196
1541874464688151,0.614136,-0.165344,0.770142,0.0484009
1541874464704161,0.617737,-0.160706,0.768982,0.0349731
1541874464727199,0.621155,-0.15564,0.767761,0.0212402
1541874464748214,0.623962,-0.1521,0.766418,0.00811768
1541874464764208,0.62616,-0.151245,0.764832,-0.003479
1541874464787226,0.627869,-0.153015,0.763,-0.0133667
1541874464808297,0.628357,-0.156555,0.761597,-0.0224609
1541874464824255,0.627319,-0.159912,0.761475,-0.0320435
1541874464847284,0.625366,-0.162354,0.762024,-0.0429077
1541874464875351,0.623535,-0.16571,0.762085,-0.0532837
1541874464884321,0.622375,-0.171265,0.761169,-0.0626831
1541874464907320,0.62146,-0.177673,0.759583,-0.0718384
1541874464929338,0.6203,-0.182495,0.758423,-0.0818481
1541874464951374,0.618591,-0.18573,0.757751,-0.0925903
1541874464966386,0.616943,-0.188416,0.75708,-0.102905
1541874464987402,0.615723,-0.191711,0.755981,-0.112
1541874465004404,0.614685,-0.194824,0.754822,-0.119873
1541874465026416,0.61377,-0.197205,0.753845,-0.126953
1541874465047485,0.612488,-0.198792,0.753357,-0.132935
1541874465070451,0.610535,-0.200317,0.753723,-0.138062
1541874465086492,0.608032,-0.201233,0.754456,-0.143372
1541874465107477,0.605408,-0.202332,0.755249,-0.14856
1541874465123490,0.60321,-0.204956,0.75531,-0.153564
1541874465146516,0.600708,-0.207458,0.755371,-0.159607
1541874465167543,0.597839,-0.208557,0.755676,-0.167419
1541874465183536,0.594849,-0.207886,0.756226,-0.176086
1541874465206568,0.592285,-0.207947,0.756348,-0.183899
1541874465229592,0.590027,-0.20813,0.756348,-0.190918
1541874465251607,0.588074,-0.207092,0.75647,-0.197388
1541874465266602,0.58606,-0.205566,0.757202,-0.202271
1541874465296627,0.583313,-0.205933,0.758606,-0.204285
1541874465303642,0.580811,-0.207703,0.760559,-0.202515
1541874465326651,0.579529,-0.211731,0.761963,-0.196655
1541874465349722,0.578918,-0.215942,0.763184,-0.188843
1541874465370684,0.579041,-0.218933,0.764465,-0.179688
1541874465386699,0.580261,-0.221741,0.765381,-0.168091
1541874465416721,0.582153,-0.2229,0.766663,-0.153503
1541874465447747,0.584106,-0.223145,0.768188,-0.137024
1541874465460811,0.58606,-0.223145,0.769653,-0.119812
1541874465468814,0.587341,-0.222778,0.77124,-0.102478
1541874465490797,0.587952,-0.2229,0.772705,-0.0865479
1541874465506845,0.588928,-0.22345,0.773193,-0.0726929
1541874465529824,0.590942,-0.223755,0.772644,-0.0604858
1541874465557850,0.593262,-0.222595,0.772034,-0.048645
1541874465566858,0.595825,-0.220703,0.771301,-0.0360718
1541874465589864,0.597717,-0.220093,0.770569,-0.0213013
1541874465611884,0.598816,-0.221375,0.769592,-0.00415039
1541874465633910,0.59967,-0.224792,0.767822,0.0147095
1541874465656927,0.600403,-0.228943,0.765442,0.0340576
1541874465669938,0.600952,-0.232605,0.762756,0.0529785
1541874465686951,0.601685,-0.235229,0.76001,0.0708618
1541874465709005,0.602661,-0.237061,0.756836,0.0880127
1541874465731978,0.603699,-0.239014,0.753235,0.10498
1541874465747000,0.604431,-0.241272,0.749268,0.122253
1541874465769013,0.604675,-0.244324,0.744934,0.140137
1541874465790033,0.604492,-0.248352,0.740173,0.15802
1541874465807048,0.604248,-0.252319,0.735168,0.175293
1541874465829073,0.603882,-0.255005,0.730469,0.191406
1541874465850079,0.603638,-0.257324,0.725647,0.206848
1541874465867093,0.603088,-0.258972,0.721375,0.220764
1541874465889107,0.602539,-0.260742,0.717407,0.232788
1541874465910127,0.602356,-0.262451,0.713928,0.241882
1541874465926121,0.603088,-0.26355,0.711182,0.246948
1541874465949144,0.604614,-0.263916,0.709229,0.248413
1541874465970174,0.606934,-0.263245,0.708252,0.246155
1541874465986169,0.609741,-0.262573,0.707825,0.241211
1541874466009187,0.612305,-0.262817,0.707397,0.235535
1541874466030221,0.613586,-0.262939,0.707947,0.230408
1541874466046220,0.612793,-0.263977,0.709778,0.225708
1541874466069232,0.610291,-0.266663,0.712769,0.219849
1541874466092306,0.606812,-0.27002,0.717285,0.210388
1541874466106272,0.602539,-0.273132,0.723694,0.19635
1541874466129295,0.597046,-0.278137,0.731018,0.17804
1541874466152317,0.589661,-0.285461,0.738708,0.158386
1541874466166328,0.580627,-0.29425,0.746399,0.138123
1541874466189337,0.570923,-0.302307,0.754272,0.117188
1541874466219357,0.560608,-0.308716,0.762329,0.0958252
1541874466226375,0.549683,-0.314697,0.770142,0.0750122
1541874466249375,0.538025,-0.321411,0.777222,0.0556641
1541874466272406,0.52594,-0.329163,0.783264,0.0378418
1541874466293409,0.513916,-0.33728,0.788391,0.0211792
1541874466309421,0.50238,-0.34436,0.79303,0.00531006
1541874466331458,0.491577,-0.34906,0.797729,-0.00952148
1541874466353466,0.48175,-0.351563,0.802307,-0.0222778
1541874466369488,0.472839,-0.352661,0.806824,-0.0323486
1541874466392487,0.465393,-0.352844,0.81073,-0.0394897
1541874466412558,0.459656,-0.352966,0.813782,-0.043335
1541874466429537,0.455261,-0.353149,0.816101,-0.0438232
1541874466451555,0.451843,-0.351257,0.81897,-0.041687
1541874466480575,0.449463,-0.347229,0.822205,-0.0369873
1541874466489583,0.447693,-0.345337,0.82428,-0.02948
1541874466511594,0.447937,-0.344604,0.824707,-0.0194702
1541874466532651,0.4505,-0.344604,0.823547,-0.00793457
1541874466549630,0.455139,-0.342773,0.821777,0.0045166
1541874466571649,0.461182,-0.338928,0.819763,0.0179443
1541874466600669,0.468628,-0.3349,0.816711,0.0333862
1541874466609656,0.475708,-0.331787,0.812988,0.0505981
1541874466631686,0.484497,-0.328369,0.807678,0.0708008
1541874466652710,0.494202,-0.324158,0.80127,0.0927734
1541874466669723,0.50354,-0.320313,0.794067,0.115112
1541874466691723,0.511475,-0.31842,0.786255,0.136963
1541874466714746,0.518127,-0.318237,0.778198,0.156738
1541874466736761,0.525696,-0.316162,0.770142,0.174683
1541874466759790,0.533264,-0.313293,0.76239,0.190308
1541874466772840,0.539917,-0.31134,0.754395,0.205872
1541874466789853,0.545044,-0.311646,0.745728,0.222717
1541874466811826,0.548035,-0.315552,0.735779,0.242004
1541874466834845,0.549133,-0.320923,0.725159,0.263611
1541874466849866,0.549255,-0.32666,0.713928,0.286194
1541874466871873,0.548828,-0.331848,0.702332,0.308777
1541874466892899,0.548218,-0.336731,0.690308,0.330872
1541874466908912,0.548096,-0.340881,0.677917,0.351685
1541874466931920,0.548279,-0.344604,0.665222,0.371521
1541874466954942,0.546753,-0.34906,0.654419,0.388489
1541874466976964,0.545288,-0.352966,0.644165,0.403748
1541874466991977,0.543945,-0.356201,0.634949,0.417175
1541874467012994,0.542542,-0.359253,0.626526,0.428894
1541874467029005,0.540649,-0.362427,0.619202,0.439148
1541874467052014,0.538086,-0.365845,0.613342,0.447632
1541874467074044,0.534912,-0.369812,0.608887,0.454163
1541874467097059,0.53125,-0.374451,0.60614,0.458374
1541874467119074,0.527588,-0.379028,0.605408,0.459717
1541874467142095,0.524536,-0.382568,0.607239,0.457886
1541874467164111,0.522705,-0.385132,0.611877,0.45166
1541874467172117,0.522217,-0.38739,0.618958,0.44043
1541874467194132,0.522705,-0.388,0.628174,0.426086
1541874467209147,0.522705,-0.385864,0.639832,0.4104
1541874467232165,0.520569,-0.382996,0.653809,0.393372
1541874467254171,0.515503,-0.382874,0.669556,0.37323
1541874467275195,0.506897,-0.384399,0.687256,0.350647
1541874467298217,0.4953,-0.386902,0.706177,0.325928
1541874467314211,0.481384,-0.390015,0.725342,0.299927
1541874467335246,0.466064,-0.392639,0.743958,0.273926
1541874467352260,0.44928,-0.39447,0.761719,0.249573
1541874467374258,0.430725,-0.396362,0.778076,0.227783
1541874467395294,0.410034,-0.400085,0.792603,0.208618
1541874467412307,0.387451,-0.406372,0.804932,0.191772
1541874467435307,0.363586,-0.414429,0.815369,0.176575
1541874467455341,0.338989,-0.422791,0.824524,0.16272
1541874467472353,0.31488,-0.431519,0.831909,0.149902
1541874467494351,0.291809,-0.439453,0.838318,0.137634
1541874467515388,0.270752,-0.445129,0.844238,0.12561
1541874467532382,0.251831,-0.448608,0.849792,0.114502
1541874467562424,0.235107,-0.450745,0.854675,0.104919
1541874467592448,0.223267,-0.451904,0.858032,0.0985718
1541874467595445,0.213623,-0.453003,0.860352,0.0942383
1541874467598449,0.206604,-0.454346,0.861572,0.0922852
1541874467619470,0.203796,-0.455017,0.861755,0.0936279
1541874467642488,0.20636,-0.453979,0.861084,0.098938
1541874467657500,0.213867,-0.451355,0.859497,0.108643
1541874467679519,0.225098,-0.449036,0.855896,0.122681
1541874467702535,0.238953,-0.450012,0.848816,0.140808
1541874467720548,0.251221,-0.45575,0.838562,0.161072
1541874467739598,0.266235,-0.46167,0.825439,0.185791
1541874467771625,0.283752,-0.463989,0.811829,0.212219
1541874467777593,0.302429,-0.464111,0.797729,0.238098
1541874467799611,0.321289,-0.464783,0.781677,0.263855
1541874467822629,0.339233,-0.466736,0.763367,0.290283
1541874467837641,0.355408,-0.468567,0.743713,0.317749
1541874467859642,0.370178,-0.469238,0.723328,0.345703
1541874467883668,0.383606,-0.469177,0.702087,0.373779
1541874467897688,0.395874,-0.46875,0.679626,0.401978
1541874467919705,0.406433,-0.46814,0.655884,0.430603
1541874467942719,0.414856,-0.467407,0.631042,0.459534
1541874467960737,0.420654,-0.466431,0.605408,0.48877
1541874467982736,0.424255,-0.464783,0.579834,0.517334
1541874468002766,0.426453,-0.462036,0.555298,0.54425
1541874468017783,0.426514,-0.458862,0.532104,0.569519
1541874468039801,0.423889,-0.455994,0.510132,0.593323
1541874468062817,0.418457,-0.454346,0.489563,0.615356
1541874468077830,0.41156,-0.453186,0.471252,0.634888
1541874468099847,0.40155,-0.454163,0.458557,0.649719
1541874468122865,0.393066,-0.454895,0.44989,0.6604
1541874468144882,0.386414,-0.455872,0.445129,0.666809
1541874468159895,0.381104,-0.457825,0.443787,0.669373
1541874468177909,0.37677,-0.460754,0.445068,0.669067
1541874468196923,0.371826,-0.464722,0.448425,0.666809
1541874468219941,0.365784,-0.470398,0.453674,0.662659
1541874468237956,0.359436,-0.478027,0.460571,0.655884
1541874468257968,0.35376,-0.486206,0.468567,0.647156
1541874468279989,0.34729,-0.493835,0.477661,0.638184
1541874468298005,0.339783,-0.501709,0.488464,0.627869
1541874468325007,0.331116,-0.510498,0.502747,0.614014
1541874468340071,0.322449,-0.519104,0.520874,0.596008
1541874468358050,0.314941,-0.526306,0.54364,0.572876
1541874468380055,0.309143,-0.530396,0.570923,0.545044
1541874468403080,0.304199,-0.530823,0.601013,0.514221
1541874468418114,0.297913,-0.52948,0.63092,0.482544
1541874468437112,0.288879,-0.528015,0.658813,0.451233
1541874468460130,0.276794,-0.526733,0.684814,0.420593
1541874468478136,0.261719,-0.525513,0.708984,0.390686
1541874468497159,0.243469,-0.524475,0.731323,0.361694
1541874468520177,0.222778,-0.523987,0.751343,0.333557
1541874468538191,0.200928,-0.523315,0.769226,0.306641
1541874468557241,0.179016,-0.52179,0.785278,0.281067
1541874468580260,0.15802,-0.519043,0.799683,0.257019
1541874468598238,0.138611,-0.514526,0.812805,0.235291
1541874468617253,0.121094,-0.508972,0.824341,0.216187
1541874468647312,0.105713,-0.503601,0.833557,0.200806
1541874468658286,0.0956421,-0.498718,0.839905,0.191284
1541874468679303,0.0889893,-0.495483,0.843689,0.186279
1541874468700319,0.0865479,-0.493652,0.845032,0.186157
1541874468718332,0.0889893,-0.49292,0.844116,0.191223
1541874468740341,0.09552,-0.492737,0.841187,0.200989
1541874468784421,0.104858,-0.494873,0.835449,0.214661
1541874468787387,0.11377,-0.501221,0.826172,0.230713
1541874468808389,0.126831,-0.508484,0.813538,0.252014
1541874468827419,0.143311,-0.513184,0.800049,0.275757
1541874468837426,0.16095,-0.516968,0.785156,0.300476
1541874468859424,0.178101,-0.522156,0.767944,0.325378
1541874468880444,0.195129,-0.529907,0.747009,0.350891
1541874468898456,0.212219,-0.537842,0.723022,0.377991
1541874468918491,0.229126,-0.543274,0.697998,0.406311
1541874468939508,0.245911,-0.546753,0.671814,0.434998
1541874468957521,0.261414,-0.550842,0.642578,0.463989
1541874468980539,0.274475,-0.556396,0.60968,0.493286
1541874468999550,0.284058,-0.563049,0.573364,0.522949
1541874469017567,0.291016,-0.569336,0.535034,0.552124
1541874469040586,0.296509,-0.573914,0.496338,0.579956
1541874469060602,0.301514,-0.576477,0.458313,0.60553
1541874469077607,0.305847,-0.577515,0.421021,0.628967
1541874469099622,0.308167,-0.578186,0.384399,0.65033
1541874469120684,0.3078,-0.578735,0.349304,0.669556
1541874469136661,0.305481,-0.579407,0.316956,0.685913
1541874469159696,0.302856,-0.5802,0.288452,0.698853
1541874469180697,0.30127,-0.580933,0.264709,0.708252
1541874469196689,0.296509,-0.582947,0.249329,0.714233
1541874469219708,0.292358,-0.585632,0.238586,0.717346
1541874469240742,0.289429,-0.589172,0.232727,0.71759
1541874469256757,0.287659,-0.593018,0.231812,0.715393
1541874469279757,0.287292,-0.597046,0.235901,0.710876
1541874469300791,0.288147,-0.601746,0.245056,0.703369
1541874469316797,0.291199,-0.606628,0.260071,0.692505
1541874469339838,0.29895,-0.609619,0.2771,0.679871
1541874469360837,0.303223,-0.612366,0.298401,0.666321
1541874469376853,0.301575,-0.615112,0.322876,0.653015
1541874469399863,0.294067,-0.617432,0.350769,0.639648
1541874469420920,0.281494,-0.619324,0.381653,0.625732
1541874469436878,0.265198,-0.620605,0.414185,0.610596
1541874469459915,0.247375,-0.620789,0.447693,0.594116
1541874469480932,0.227966,-0.619385,0.480469,0.577515
1541874469496926,0.20636,-0.616333,0.511536,0.562012
1541874469519980,0.182434,-0.612854,0.540039,0.54718
1541874469540979,0.156677,-0.609802,0.566467,0.531677
1541874469556971,0.129395,-0.606995,0.591064,0.515137
1541874469580012,0.101135,-0.604248,0.613586,0.498169
1541874469601026,0.0733643,-0.601318,0.633789,0.481018
1541874469617029,0.0474243,-0.598267,0.651917,0.463501
1541874469640057,0.0252686,-0.594543,0.668884,0.445496
1541874469661073,0.00823975,-0.589233,0.685486,0.427551
1541874469676081,-0.00463867,-0.581848,0.702393,0.409912
1541874469700103,-0.0151367,-0.574463,0.717773,0.393066
1541874469721120,-0.0249023,-0.569092,0.730286,0.377136
1541874469736130,-0.0343018,-0.566711,0.739258,0.362061
1541874469760132,-0.0429077,-0.566711,0.745483,0.348206
1541874469781189,-0.0484009,-0.57019,0.747742,0.33667
1541874469805198,-0.0526733,-0.575439,0.747803,0.326965
1541874469819197,-0.0556641,-0.580688,0.747253,0.318237
1541874469841196,-0.0570679,-0.585449,0.74646,0.310974
1541874469856208,-0.0571899,-0.588684,0.746216,0.30542
1541874469879245,-0.0560913,-0.591187,0.746277,0.300659
1541874469909268,-0.053894,-0.596497,0.743835,0.29657
1541874469916266,-0.0497437,-0.60321,0.738403,0.29718
1541874469939291,-0.0452271,-0.606873,0.734497,0.300171
1541874469962309,-0.0422363,-0.609802,0.732056,0.30072
1541874469984353,-0.0413208,-0.613342,0.72998,0.298645
1541874470007327,-0.0409546,-0.615906,0.729126,0.295593
1541874470022356,-0.039978,-0.615845,0.730286,0.292908
1541874470043374,-0.0396118,-0.616089,0.731262,0.289978
1541874470067392,-0.0405273,-0.617432,0.731384,0.286743
1541874470082392,-0.0421143,-0.617859,0.732178,0.28363
1541874470103420,-0.0446777,-0.617065,0.733887,0.280457
1541874470119414,-0.0481567,-0.616516,0.735413,0.276978
1541874470142467,-0.0516357,-0.616699,0.736389,0.273376
1541874470163468,-0.0545044,-0.617126,0.737122,0.269897
1541874470179469,-0.057251,-0.61853,0.737061,0.266113
1541874470202498,-0.0592041,-0.619141,0.737854,0.262207
1541874470223551,-0.0600586,-0.619995,0.738464,0.258179
1541874470241528,-0.0601807,-0.621094,0.738892,0.25415
1541874470262542,-0.0593262,-0.622009,0.739746,0.249573
1541874470283598,-0.0579834,-0.623352,0.740479,0.244385
1541874470299555,-0.0556641,-0.624451,0.741455,0.239075
1541874470322592,-0.0531006,-0.625183,0.742798,0.233643
1541874470343609,-0.0507202,-0.626587,0.743652,0.227539
1541874470360624,-0.0481567,-0.627808,0.744446,0.221924
1541874470382637,-0.0457153,-0.63031,0.743896,0.217285
1541874470403656,-0.0429688,-0.63385,0.742432,0.212646
1541874470419650,-0.0397949,-0.637817,0.740295,0.208557
1541874470442697,-0.0358887,-0.643188,0.737,0.20459
1541874470463696,-0.0303955,-0.651062,0.730896,0.202454
1541874470479715,-0.0229492,-0.655518,0.727478,0.201416
1541874470501733,-0.015564,-0.658936,0.725525,0.197937
1541874470524733,-0.00848389,-0.661072,0.724976,0.193176
1541874470539763,-0.00183105,-0.66156,0.72583,0.188477
1541874470563778,0.00427246,-0.662231,0.725952,0.185425
1541874470582833,0.00939941,-0.663391,0.725159,0.184143
1541874470599828,0.0142212,-0.664978,0.723755,0.183899
1541874470621827,0.0194092,-0.666382,0.72229,0.183838
1541874470642880,0.0246582,-0.667236,0.721558,0.182983
1541874470658839,0.0296021,-0.667786,0.721436,0.180725
1541874470681867,0.0344238,-0.667419,0.722351,0.177673
1541874470702877,0.0386353,-0.666321,0.723938,0.174316
1541874470718884,0.0421753,-0.665405,0.725464,0.170776
1541874470741922,0.0448608,-0.66449,0.727051,0.166992
1541874470762938,0.0467529,-0.663147,0.728943,0.16333
1541874470778932,0.0479736,-0.661438,0.731262,0.159668
1541874470801951,0.0490112,-0.659668,0.733459,0.156189
1541874470822987,0.0501709,-0.657837,0.735718,0.153076
1541874470838993,0.0513916,-0.655762,0.738037,0.150635
1541874470862003,0.0530396,-0.653687,0.740112,0.148743
1541874470885035,0.0548096,-0.651917,0.74176,0.147522
1541874470899045,0.0567017,-0.650635,0.742981,0.146423
1541874470922045,0.0588989,-0.649597,0.743958,0.145203
1541874470945081,0.0618286,-0.64856,0.744873,0.143982
1541874470959074,0.0649414,-0.647827,0.745422,0.142944
1541874470982091,0.0684204,-0.647644,0.745422,0.142273
1541874471005146,0.0725098,-0.649963,0.74292,0.142517
1541874471026145,0.078125,-0.6521,0.73999,0.145142
1541874471042139,0.0853271,-0.651855,0.738892,0.147644
1541874471065176,0.0924683,-0.650879,0.738892,0.147827
1541874471086193,0.0983887,-0.648438,0.740601,0.146057
1541874471102197,0.102844,-0.646301,0.74231,0.143799
1541874471125219,0.106445,-0.645264,0.743164,0.141479
1541874471146239,0.110107,-0.644897,0.74353,0.13855
1541874471162234,0.114502,-0.644897,0.743469,0.13501
1541874471185251,0.119263,-0.64502,0.743347,0.130981
1541874471206269,0.12384,-0.645081,0.743225,0.12677
1541874471222300,0.12793,-0.644714,0.743713,0.121948
1541874471244317,0.132019,-0.643982,0.744507,0.116394
1541874471266331,0.136414,-0.642822,0.745667,0.109985
1541874471282347,0.141418,-0.641418,0.747009,0.102722
1541874471304410,0.146973,-0.640076,0.748047,0.0952148
1541874471325381,0.152954,-0.638733,0.748901,0.0879517
1541874471342394,0.159485,-0.637268,0.749573,0.0809937
1541874471364418,0.165833,-0.636292,0.749756,0.0739746
1541874471385408,0.172363,-0.63446,0.750549,0.0666504
1541874471402430,0.178772,-0.632751,0.751099,0.0591431
1541874471424451,0.18512,-0.630859,0.751709,0.0514526
1541874471445477,0.191284,-0.628845,0.75238,0.0431519
1541874471462491,0.197876,-0.62738,0.752319,0.0350342
1541874471484487,0.204407,-0.626038,0.752014,0.0273438
1541874471505522,0.210999,-0.624939,0.751343,0.0198364
1541874471522535,0.217651,-0.624512,0.749939,0.0126953
1541874471544540,0.224182,-0.624146,0.748413,0.00592041
1541874471565570,0.23053,-0.623962,0.746643,-0.000427246
1541874471581573,0.236816,-0.623779,0.744812,-0.00598145
1541874471604590,0.242676,-0.623047,0.743469,-0.0106201
1541874471625617,0.247559,-0.621216,0.743347,-0.0144653
1541874471641610,0.251038,-0.619324,0.743713,-0.0176392
1541874471664627,0.253357,-0.618652,0.743408,-0.0203857
1541874471685663,0.255005,-0.618652,0.742737,-0.0229492
1541874471701675,0.257141,-0.618774,0.741882,-0.0252075
1541874471724674,0.260071,-0.618103,0.741394,-0.0254517
1541874471745711,0.26355,-0.615723,0.742188,-0.0247803
1541874471761719,0.26825,-0.612793,0.74292,-0.0230103
1541874471784723,0.273315,-0.60907,0.744263,-0.0202637
1541874471807755,0.27832,-0.604004,0.746643,-0.0161133
1541874471821770,0.283203,-0.598938,0.748962,-0.0103149
1541874471844784,0.287842,-0.594482,0.750793,-0.00292969
1541874471867798,0.292297,-0.59137,0.751526,0.00640869
1541874471881817,0.296509,-0.589111,0.751465,0.0180664
1541874471904835,0.300659,-0.58667,0.751282,0.0316162
1541874471926853,0.305298,-0.583435,0.75116,0.0465088
1541874471949871,0.310425,-0.57959,0.750854,0.0626831
1541874471964882,0.316162,-0.575562,0.749878,0.0802002
1541874471986936,0.321655,-0.570984,0.748779,0.098999
1541874472007916,0.327332,-0.56604,0.74707,0.119751
1541874472024929,0.332764,-0.560608,0.744934,0.141724
1541874472046947,0.337769,-0.555542,0.741638,0.164978
1541874472052953,0.342041,-0.55188,0.736511,0.189636
1541874472074970,0.34552,-0.549805,0.729248,0.215637
1541874472089982,0.348206,-0.54895,0.719849,0.243164
1541874472112999,0.349792,-0.548767,0.709045,0.271484
1541874472131013,0.350464,-0.549011,0.697021,0.299805
1541874472161037,0.350342,-0.549255,0.68457,0.326904
1541874472173045,0.349915,-0.549072,0.67218,0.352417
1541874472191060,0.349304,-0.547974,0.6604,0.376221
1541874472210075,0.348511,-0.546387,0.648987,0.398499
1541874472233094,0.347351,-0.545044,0.63739,0.419556
1541874472251103,0.345947,-0.543945,0.625549,0.439453
1541874472270122,0.343506,-0.54364,0.614197,0.457397
1541874472293145,0.341064,-0.543335,0.602966,0.474121
1541874472311136,0.338867,-0.542725,0.592468,0.48938
1541874472330170,0.337219,-0.541565,0.582764,0.503296
1541874472353184,0.335815,-0.540222,0.573975,0.515625
1541874472369200,0.334595,-0.53894,0.566162,0.526306
1541874472390217,0.333557,-0.537903,0.559204,0.5354
1541874472415237,0.332458,-0.537292,0.552795,0.543335
1541874472429247,0.33075,-0.537231,0.546814,0.550415
1541874472450245,0.328552,-0.537659,0.541321,0.556702
1541874472472282,0.326233,-0.538269,0.536255,0.562317
1541874472489294,0.324768,-0.538269,0.531738,0.567444
1541874472511306,0.324158,-0.537781,0.527466,0.572266
1541874472532329,0.323975,-0.537048,0.523376,0.576782
1541874472549337,0.323975,-0.536255,0.51947,0.580994
1541874472570359,0.323914,-0.535645,0.515869,0.584839
1541874472592412,0.323669,-0.535034,0.512817,0.588135
1541874472609406,0.323181,-0.534607,0.510315,0.591003
1541874472630405,0.32251,-0.53418,0.508484,0.593323
1541874472652422,0.321777,-0.533752,0.507141,0.595215
1541874472669440,0.32074,-0.533325,0.506348,0.596924
1541874472690454,0.319275,-0.532959,0.505981,0.598328
1541874472712470,0.317322,-0.532898,0.50592,0.599426
1541874472731485,0.315002,-0.53302,0.506104,0.600342
1541874472750501,0.312683,-0.533081,0.506714,0.601074
1541874472780524,0.310852,-0.532837,0.507568,0.601501
1541874472790511,0.309204,-0.532471,0.508484,0.601868
1541874472810542,0.307556,-0.532288,0.509399,0.602173
1541874472832565,0.305969,-0.531982,0.510315,0.602417
1541874472850560,0.304443,-0.531677,0.511169,0.602722
1541874472870594,0.30304,-0.531433,0.511902,0.603088
1541874472892647,0.301636,-0.531128,0.512573,0.603394
1541874472918632,0.300476,-0.530762,0.513306,0.603699
1541874472930641,0.299438,-0.530334,0.514099,0.603943
1541874472952660,0.298767,-0.529968,0.515015,0.603821
1541874472970655,0.298523,-0.529419,0.515869,0.603699
1541874472990688,0.298645,-0.528748,0.516724,0.603455
1541874473008685,0.29895,-0.528198,0.517395,0.60321
1541874473030702,0.299072,-0.527893,0.517944,0.602905
1541874473050737,0.299377,-0.527466,0.518738,0.602539
1541874473067749,0.299805,-0.526855,0.51947,0.602173
1541874473090766,0.300049,-0.526489,0.519958,0.60199
1541874473110774,0.299683,-0.526611,0.519958,0.602051
1541874473127797,0.298828,-0.526978,0.519836,0.602295
1541874473150814,0.297852,-0.5271,0.519836,0.6026
1541874473169829,0.296448,-0.527405,0.519836,0.603088
1541874473195850,0.294556,-0.527649,0.519958,0.603699
1541874473210862,0.291992,-0.528015,0.520203,0.60437
1541874473229875,0.288391,-0.528748,0.520569,0.605225
1541874473252895,0.283508,-0.529724,0.520813,0.606384
1541874473270910,0.277771,-0.530762,0.520935,0.608093
1541874473291926,0.271118,-0.532043,0.521057,0.609863
1541874473319950,0.264221,-0.533386,0.521179,0.611572
1541874473330959,0.257446,-0.534363,0.521545,0.613342
1541874473351972,0.25061,-0.535217,0.521912,0.615051
1541874473372988,0.243652,-0.536072,0.522278,0.616821
1541874473397999,0.236816,-0.536926,0.522888,0.618164
1541874473412019,0.230408,-0.537598,0.524048,0.619019
1541874473433036,0.224731,-0.537537,0.525818,0.61969
1541874473451050,0.218933,-0.537659,0.527466,0.620239
1541874473472067,0.21228,-0.538635,0.528564,0.620789
1541874473493083,0.205139,-0.540161,0.529236,0.621277
1541874473510097,0.197937,-0.542053,0.52948,0.621826
1541874473531114,0.190369,-0.543945,0.529419,0.622498
1541874473553130,0.182434,-0.546204,0.529236,0.623108
1541874473577130,0.1745,-0.548645,0.529114,0.623352
1541874473598166,0.16687,-0.551147,0.529114,0.62323
1541874473607169,0.159607,-0.553955,0.528992,0.622681
1541874473630190,0.152954,-0.55658,0.528992,0.622009
1541874473651208,0.146484,-0.559326,0.528748,0.621338
1541874473667220,0.139832,-0.562439,0.527893,0.620789
1541874473690238,0.132874,-0.56604,0.526306,0.620422
1541874473712235,0.125366,-0.569946,0.524109,0.6203
1541874473727257,0.117676,-0.573486,0.521912,0.620361
1541874473750286,0.110413,-0.57666,0.520142,0.6203
1541874473772282,0.104187,-0.579529,0.518677,0.619812
1541874473786314,0.0986328,-0.582458,0.517517,0.619019
1541874473810367,0.0946655,-0.583984,0.517578,0.618103
1541874473832330,0.0911865,-0.585815,0.517578,0.616943
1541874473853367,0.0884399,-0.587036,0.518127,0.615662
1541874473870380,0.0862427,-0.58783,0.51886,0.614624
1541874473892377,0.0839844,-0.588257,0.519653,0.613892
1541874473913415,0.0820923,-0.588623,0.519653,0.61377
1541874473930429,0.0797729,-0.588928,0.518616,0.614685
1541874473952444,0.078125,-0.588745,0.517944,0.615601
1541874473966451,0.0760498,-0.588257,0.517273,0.616943
1541874473990464,0.0754395,-0.586792,0.517822,0.61792
1541874474012491,0.0758667,-0.584656,0.518188,0.619568
1541874474026499,0.0744019,-0.58374,0.516785,0.621765
1541874474049520,0.071167,-0.585693,0.512512,0.62384
1541874474072538,0.0640869,-0.587402,0.507874,0.626831
1541874474093556,0.0603638,-0.587341,0.504944,0.629517
1541874474109564,0.0567627,-0.587219,0.502075,0.632324
1541874474132585,0.0526123,-0.587769,0.49884,0.634766
1541874474153638,0.0474854,-0.588928,0.495056,0.637024
1541874474169608,0.0418091,-0.589722,0.49115,0.639709
1541874474192633,0.0356445,-0.590637,0.487061,0.642334
1541874474213644,0.0292358,-0.591675,0.483093,0.644653
1541874474229646,0.0230713,-0.592529,0.480103,0.646423
1541874474252680,0.017395,-0.593018,0.478088,0.647644
1541874474280702,0.0123291,-0.592957,0.477051,0.64856
1541874474289690,0.00671387,-0.593079,0.476257,0.649109
1541874474312728,0.000671387,-0.593628,0.47583,0.648926
1541874474333744,-0.00518799,-0.594116,0.47583,0.648499
1541874474349746,-0.0112915,-0.594788,0.475464,0.64801
1541874474372774,-0.0184937,-0.59613,0.474365,0.647522
1541874474393826,-0.0258789,-0.597656,0.473145,0.646729
1541874474409786,-0.0324097,-0.598938,0.471924,0.646118
1541874474432823,-0.0379639,-0.599915,0.470886,0.64563
1541874474453838,-0.0429077,-0.600525,0.47052,0.645081
1541874474468850,-0.0472412,-0.60083,0.470276,0.644714
1541874474492869,-0.052002,-0.601318,0.469543,0.644409
1541874474513885,-0.0561523,-0.601929,0.468628,0.644104
1541874474529878,-0.0593262,-0.602783,0.467529,0.64386
1541874474559901,-0.0629272,-0.604736,0.464478,0.64386
1541874474573972,-0.0705566,-0.608154,0.458984,0.643799
1541874474588945,-0.0791016,-0.610962,0.454712,0.643188
1541874474612962,-0.0830688,-0.612366,0.452881,0.6427
1541874474634972,-0.0848389,-0.614136,0.450928,0.64209
1541874474657989,-0.0866089,-0.617981,0.447021,0.64093
1541874474672009,-0.0895996,-0.623718,0.44165,0.638672
1541874474695027,-0.0936279,-0.629211,0.436462,0.63623
1541874474709043,-0.0968018,-0.63324,0.432678,0.634399
1541874474732056,-0.0975342,-0.635925,0.430115,0.633301
1541874474755074,-0.0971069,-0.638123,0.42804,0.632568
1541874474776126,-0.0957031,-0.639587,0.427063,0.631958
1541874474792104,-0.092041,-0.639832,0.42865,0.631165
1541874474815122,-0.085144,-0.638306,0.432556,0.631042
1541874474836137,-0.0771484,-0.636414,0.43689,0.631042
1541874474852151,-0.0695801,-0.633972,0.440552,0.631775
1541874474875168,-0.0634155,-0.631714,0.443359,0.63269
1541874474896221,-0.0576172,-0.629272,0.445923,0.633911
1541874474912194,-0.050415,-0.626465,0.448975,0.635132
1541874474935199,-0.0419312,-0.622559,0.45282,0.636841
1541874474956232,-0.0324707,-0.618103,0.456177,0.639343
1541874474972227,-0.0241089,-0.614014,0.457886,0.642395
1541874474995263,-0.0159912,-0.611206,0.457764,0.645386
1541874475016316,-0.00701904,-0.608154,0.457092,0.648987
1541874475032275,0.00305176,-0.604309,0.456848,0.65271
1541874475055310,0.0147095,-0.600403,0.45697,0.656067
1541874475076327,0.0273438,-0.596558,0.456665,0.659363
1541874475092331,0.0391846,-0.593201,0.4552,0.662781
1541874475115357,0.0497437,-0.590088,0.453125,0.666321
1541874475136374,0.0587158,-0.586914,0.451294,0.669617
1541874475152378,0.0661621,-0.583435,0.450623,0.672424
1541874475175404,0.071167,-0.580933,0.450439,0.674133
1541874475196422,0.072937,-0.579773,0.450684,0.674866
1541874475212415,0.0718994,-0.579834,0.451172,0.674561
1541874475235451,0.0680542,-0.580872,0.452148,0.673401
1541874475256468,0.0620728,-0.58252,0.454102,0.671265
1541874475272465,0.0557861,-0.584229,0.457275,0.668152
1541874475295499,0.0497437,-0.585815,0.461304,0.66449
1541874475316515,0.0432129,-0.587891,0.464661,0.660767
1541874475331520,0.0358276,-0.59082,0.466431,0.657288
1541874475355538,0.0286865,-0.593933,0.467957,0.653748
1541874475376554,0.0234375,-0.595886,0.470703,0.650208
1541874475391556,0.0216675,-0.597229,0.474365,0.646423
1541874475414592,0.0223999,-0.598633,0.4776,0.6427
1541874475436602,0.0238647,-0.601074,0.479553,0.638855
1541874475451602,0.0247803,-0.604858,0.480957,0.634155
1541874475474675,0.0266724,-0.608765,0.483826,0.628113
1541874475496653,0.0302734,-0.612244,0.489014,0.620544
1541874475511650,0.034668,-0.615479,0.495789,0.611694
1541874475534681,0.0363159,-0.619751,0.502686,0.601563
1541874475555703,0.0353394,-0.624573,0.510559,0.589905
1541874475571697,0.0339966,-0.628723,0.519897,0.577271
1541874475594725,0.0322266,-0.632507,0.530151,0.563782
1541874475617752,0.0302124,-0.63623,0.540833,0.549316
1541874475632764,0.0279541,-0.640259,0.551331,0.534119
1541874475654762,0.0244751,-0.644409,0.561462,0.518555
1541874475677798,0.0199585,-0.648743,0.570923,0.502747
1541874475698799,0.0150146,-0.652832,0.579956,0.487061
1541874475714825,0.0105591,-0.657227,0.588257,0.471008
1541874475737843,0.00769043,-0.661926,0.595886,0.454651
1541874475765871,0.00616455,-0.666565,0.602844,0.438416
1541874475774868,0.00506592,-0.670593,0.609436,0.422852
1541874475797894,0.00341797,-0.674011,0.616089,0.407593
1541874475818891,0.00128174,-0.677368,0.622131,0.392517
1541874475834903,-0.00244141,-0.681091,0.627686,0.377014
1541874475857936,-0.0067749,-0.684326,0.633179,0.361633
1541874475878958,-0.0144043,-0.687805,0.638733,0.344604
1541874475894952,-0.0241699,-0.690796,0.644775,0.326355
1541874475917987,-0.0354614,-0.692932,0.651672,0.306519
1541874475939005,-0.0480347,-0.694641,0.658691,0.285095
1541874475954998,-0.0614014,-0.696167,0.665405,0.262329
1541874475978032,-0.0753784,-0.697388,0.671326,0.239319
1541874475999051,-0.0894165,-0.697449,0.677246,0.216614
1541874476015055,-0.103516,-0.696472,0.683044,0.194153
1541874476038076,-0.117554,-0.695068,0.688171,0.171692
1541874476059082,-0.131531,-0.693237,0.692688,0.149353
1541874476075093,-0.14502,-0.690613,0.69696,0.127441
1541874476098114,-0.157349,-0.68689,0.701599,0.105896
1541874476119126,-0.168701,-0.682495,0.706055,0.0848999
1541874476135140,-0.179565,-0.678833,0.709045,0.0645142
1541874476157171,-0.19043,-0.675598,0.710876,0.0446777
1541874476179190,-0.201294,-0.671143,0.712952,0.0267944
1541874476195200,-0.211792,-0.666138,0.715088,0.00952148
1541874476217219,-0.221985,-0.661255,0.716492,-0.00836182
1541874476238240,-0.232239,-0.656616,0.717102,-0.0266113
1541874476255252,-0.242065,-0.652527,0.716675,-0.0449829
1541874476277280,-0.251343,-0.648804,0.715515,-0.0628052
1541874476298286,-0.260498,-0.644226,0.7146,-0.0805054
1541874476314279,-0.269958,-0.638611,0.713989,-0.0979004
1541874476337298,-0.279907,-0.633057,0.712463,-0.115417
1541874476358334,-0.29071,-0.627686,0.709778,-0.133301
1541874476374327,-0.302429,-0.622803,0.705505,-0.151489
1541874476397362,-0.314331,-0.61676,0.701477,-0.169678
1541874476418417,-0.326111,-0.609741,0.697937,-0.186462
1541874476434375,-0.336487,-0.602844,0.694397,-0.203003
1541874476457394,-0.345398,-0.596313,0.690735,-0.219238
1541874476478419,-0.35376,-0.5896,0.687622,-0.233337
1541874476494433,-0.361145,-0.582764,0.686157,-0.243408
1541874476517449,-0.368347,-0.575562,0.685425,-0.251648
1541874476523463,-0.375244,-0.569519,0.684021,-0.258789
1541874476545464,-0.381226,-0.565247,0.682556,-0.263306
1541874476562486,-0.386597,-0.560974,0.68219,-0.265503
1541874476583502,-0.391846,-0.556458,0.682495,-0.266541
1541874476605528,-0.395203,-0.554016,0.68219,-0.267273
1541874476621540,-0.397156,-0.552185,0.682556,-0.267517
1541874476642557,-0.399048,-0.549622,0.683411,-0.267578
1541874476665576,-0.400574,-0.548218,0.683533,-0.267944
1541874476682573,-0.40155,-0.547546,0.683167,-0.26886
1541874476702604,-0.403015,-0.546448,0.682495,-0.270569
1541874476725622,-0.40509,-0.544617,0.681702,-0.273132
1541874476741637,-0.407349,-0.542847,0.680725,-0.275757
1541874476762647,-0.409546,-0.541077,0.679626,-0.278625
1541874476794676,-0.411926,-0.539063,0.678772,-0.281067
1541874476800682,-0.414063,-0.537109,0.678284,-0.282776
1541874476822699,-0.416199,-0.535034,0.678406,-0.283386
1541874476845717,-0.417908,-0.533142,0.679443,-0.281982
1541874476867769,-0.419739,-0.531067,0.681335,-0.278503
1541874476882729,-0.420837,-0.529602,0.684143,-0.272766
1541874476905799,-0.421326,-0.52887,0.687805,-0.264221
1541874476921765,-0.42041,-0.530029,0.691345,-0.253723
1541874476945775,-0.418579,-0.532349,0.695129,-0.241211
1541874476965810,-0.416565,-0.534668,0.699219,-0.227417
1541874476980818,-0.413391,-0.537964,0.703369,-0.212158
1541874477002835,-0.407959,-0.542908,0.707458,-0.195862
1541874477025841,-0.401184,-0.547974,0.71167,-0.179688
1541874477040859,-0.394165,-0.553101,0.71521,-0.165039
1541874477062888,-0.386536,-0.559082,0.718018,-0.149963
1541874477085909,-0.376343,-0.56781,0.719421,-0.135803
1541874477101911,-0.364685,-0.578308,0.719727,-0.120789
1541874477122933,-0.351868,-0.588379,0.720703,-0.103271
1541874477145952,-0.337952,-0.596497,0.723145,-0.0837402
1541874477161956,-0.323608,-0.603455,0.726013,-0.0635376
1541874477182981,-0.308899,-0.610474,0.728088,-0.0415649
1541874477205995,-0.291809,-0.618164,0.729614,-0.0197144
1541874477221993,-0.273987,-0.625488,0.73053,0.000915527
1541874477243064,-0.256897,-0.631653,0.731079,0.0230713
1541874477266038,-0.239746,-0.636658,0.731506,0.0462646
1541874477282041,-0.220703,-0.641235,0.73175,0.0679932
1541874477303076,-0.201477,-0.645813,0.73114,0.0883789
1541874477334100,-0.18335,-0.65033,0.729187,0.108337
1541874477342102,-0.165833,-0.653015,0.7276,0.128906
1541874477363119,-0.1474,-0.653564,0.727234,0.149353
1541874477386138,-0.12738,-0.654236,0.726379,0.167664
1541874477402155,-0.109619,-0.655273,0.723999,0.185608
1541874477423170,-0.0942383,-0.65509,0.721558,0.203186
1541874477445184,-0.0783081,-0.655396,0.718262,0.220154
1541874477462201,-0.0616455,-0.656921,0.713562,0.235535
1541874477483218,-0.0449219,-0.658813,0.707764,0.250977
1541874477505215,-0.0286865,-0.659546,0.702393,0.266174
1541874477523246,-0.0129395,-0.658875,0.697693,0.280884
1541874477543264,0.00274658,-0.659302,0.691833,0.294312
1541874477561259,0.0175781,-0.660095,0.685181,0.307312
1541874477583293,0.03125,-0.660583,0.678223,0.320313
1541874477603312,0.0435791,-0.661194,0.670593,0.333435
1541874477621326,0.0549316,-0.662048,0.662292,0.346436
1541874477645325,0.0661011,-0.662415,0.654053,0.359253
1541874477663339,0.0776978,-0.661377,0.646973,0.371399
1541874477688361,0.0891113,-0.659607,0.640564,0.382996
1541874477703371,0.0994873,-0.65741,0.634277,0.394409
1541874477723441,0.10907,-0.653992,0.629517,0.405029
1541874477741420,0.118958,-0.649109,0.626465,0.414734
1541874477764433,0.129211,-0.643799,0.624207,0.423279
1541874477783457,0.138916,-0.639343,0.620972,0.43158
1541874477801463,0.14624,-0.637085,0.615601,0.440186
1541874477823465,0.150574,-0.635864,0.609497,0.448792
1541874477850502,0.154358,-0.633911,0.604553,0.456909
1541874477861508,0.158997,-0.630371,0.601196,0.4646
1541874477883513,0.164307,-0.626648,0.598083,0.471741
1541874477912574,0.168884,-0.623596,0.594421,0.47876
1541874477921547,0.172607,-0.621033,0.590454,0.485596
1541874477943579,0.175659,-0.618896,0.586853,0.491577
1541874477963594,0.178467,-0.61676,0.584229,0.496338
1541874477979591,0.181274,-0.614563,0.582764,0.499817
1541874478002605,0.184509,-0.612183,0.582336,0.502075
1541874478023637,0.187866,-0.61084,0.581726,0.503174
1541874478040637,0.189758,-0.611145,0.580872,0.503052
1541874478062654,0.190308,-0.612427,0.580994,0.501099
1541874478083688,0.190369,-0.613342,0.583374,0.497192
1541874478100699,0.191162,-0.613831,0.587341,0.491577
1541874478122700,0.191589,-0.614502,0.592346,0.484497
1541874478143736,0.191589,-0.616028,0.597717,0.476013
1541874478159749,0.190125,-0.618164,0.603455,0.466431
1541874478182748,0.187195,-0.620483,0.609863,0.455994
1541874478203819,0.183044,-0.623108,0.61676,0.444702
1541874478219796,0.178833,-0.625977,0.623718,0.432556
1541874478242795,0.174927,-0.628723,0.630737,0.419739
1541874478263827,0.171326,-0.631531,0.637451,0.406799
1541874478279862,0.166626,-0.634949,0.643311,0.393982
1541874478302863,0.160278,-0.639221,0.648315,0.381287
1541874478323877,0.152527,-0.644165,0.652893,0.367981
1541874478339911,0.144592,-0.649719,0.656982,0.353943
1541874478362889,0.137939,-0.654419,0.660767,0.340698
1541874478383905,0.131653,-0.658569,0.664368,0.327881
1541874478399972,0.125122,-0.662781,0.667603,0.315247
1541874478422938,0.118164,-0.66687,0.670715,0.302368
1541874478444953,0.110657,-0.670959,0.67395,0.288696
1541874478460019,0.102661,-0.674805,0.677368,0.274292
1541874478483003,0.093689,-0.678528,0.680969,0.259033
1541874478505017,0.0845337,-0.682495,0.684143,0.242798
1541874478520067,0.0753174,-0.686096,0.687439,0.225891
1541874478543049,0.0661011,-0.688843,0.69104,0.208801
1541874478565055,0.057373,-0.690979,0.694641,0.19165
1541874478595072,0.0487671,-0.69281,0.698059,0.174194
1541874478603078,0.0401611,-0.694885,0.700684,0.156677
1541874478625094,0.0317383,-0.697693,0.701721,0.140808
1541874478646131,0.0231323,-0.700806,0.701965,0.124695
1541874478670130,0.0136719,-0.703735,0.702148,0.107605
1541874478693151,0.00402832,-0.706665,0.701843,0.0899048
1541874478707213,-0.00549316,-0.708557,0.702026,0.0716553
1541874478724173,-0.0152588,-0.710144,0.701965,0.0525513
1541874478745199,-0.0253296,-0.711853,0.701111,0.0326538
1541874478768226,-0.0361938,-0.713318,0.699768,0.0126343
1541874478783238,-0.0474243,-0.714417,0.69812,-0.00665283
1541874478805237,-0.0585327,-0.714722,0.696533,-0.0251465
1541874478826256,-0.0698242,-0.714539,0.694763,-0.0435181
1541874478843280,-0.0809937,-0.714661,0.692139,-0.06073
1541874478865285,-0.0913086,-0.714966,0.688782,-0.0775146
1541874478886319,-0.100952,-0.7146,0.685913,-0.0936279
1541874478902369,-0.110291,-0.713684,0.683044,-0.109314
1541874478925351,-0.119202,-0.71283,0.67981,-0.124817
1541874478946369,-0.126831,-0.71228,0.676208,-0.138794
1541874478962381,-0.134338,-0.711914,0.672485,-0.151428
1541874478985378,-0.141052,-0.711121,0.669128,-0.163391
1541874479006394,-0.146973,-0.709961,0.666199,-0.174927
1541874479022407,-0.151611,-0.709778,0.662354,-0.185852
1541874479045444,-0.155151,-0.710022,0.658386,-0.195862
1541874479073466,-0.158203,-0.710327,0.654663,-0.204651
1541874479082474,-0.161072,-0.71051,0.651184,-0.212585
1541874479105478,-0.163513,-0.710999,0.647705,-0.219604
1541874479126509,-0.16571,-0.711365,0.644653,-0.225708
1541874479150526,-0.167969,-0.711548,0.641785,-0.231445
1541874479165538,-0.17041,-0.712036,0.638916,-0.236145
1541874479186556,-0.172791,-0.712646,0.63623,-0.239868
1541874479202563,-0.175354,-0.713074,0.634033,-0.242432
1541874479225585,-0.177795,-0.713318,0.632629,-0.243774
1541874479247584,-0.180237,-0.713501,0.631592,-0.24408
1541874479262596,-0.182312,-0.713867,0.630859,-0.243164
1541874479285625,-0.184265,-0.71405,0.630737,-0.241577
1541874479306630,-0.186279,-0.71405,0.631042,-0.239319
1541874479321644,-0.188416,-0.713867,0.631592,-0.236694
1541874479352668,-0.19043,-0.713806,0.632141,-0.233643
1541874479367680,-0.192383,-0.71405,0.632568,-0.230225
1541874479388714,-0.194275,-0.714294,0.632996,-0.226685
1541874479405728,-0.195923,-0.714294,0.633728,-0.223145
1541874479427725,-0.197083,-0.71405,0.634949,-0.219543
1541874479448756,-0.197754,-0.713623,0.636353,-0.216125
1541874479465813,-0.197998,-0.713379,0.637634,-0.213013
1541874479487772,-0.197693,-0.713318,0.638611,-0.210449
1541874479516851,-0.19696,-0.713562,0.639221,-0.208496
1541874479525845,-0.195984,-0.714233,0.639221,-0.20697
1541874479547821,-0.194763,-0.715149,0.639038,-0.20575
1541874479577843,-0.193481,-0.716003,0.638733,-0.204712
1541874479585866,-0.1922,-0.716553,0.638733,-0.204041
1541874479607877,-0.190796,-0.717041,0.638672,-0.203857
1541874479621878,-0.189209,-0.717224,0.638977,-0.203674
1541874479644915,-0.187439,-0.717102,0.639709,-0.203613
1541874479667934,-0.185486,-0.716858,0.640625,-0.203308
1541874479688985,-0.18335,-0.716248,0.642273,-0.202332
1541874479704962,-0.181335,-0.714722,0.645081,-0.200378
1541874479727963,-0.179382,-0.712891,0.64856,-0.197449
1541874479748997,-0.177307,-0.711548,0.651794,-0.193481
1541874479765006,-0.175537,-0.709961,0.655396,-0.188721
1541874479788027,-0.173889,-0.708435,0.659058,-0.183289
1541874479809045,-0.172424,-0.706909,0.66272,-0.177002
1541874479825038,-0.170837,-0.706116,0.665894,-0.169678
1541874479855064,-0.168274,-0.705994,0.668762,-0.16156
1541874479869087,-0.164856,-0.705139,0.672119,-0.154541
1541874479885101,-0.160706,-0.704102,0.675171,-0.150085
1541874479908157,-0.156128,-0.70282,0.678284,-0.147034
1541874479930120,-0.151367,-0.701111,0.681641,-0.144592
1541874479953193,-0.146484,-0.699646,0.68457,-0.143005
1541874479968150,-0.141479,-0.69873,0.686707,-0.14209
1541874479989221,-0.136414,-0.697815,0.688721,-0.141724
1541874480006180,-0.131592,-0.696594,0.690857,-0.14209
1541874480028252,-0.126953,-0.69519,0.692932,-0.143005
1541874480049232,-0.12262,-0.693359,0.695313,-0.144165
1541874480065226,-0.118652,-0.690735,0.698242,-0.14563
1541874480088299,-0.114746,-0.688538,0.700745,-0.147156
1541874480109261,-0.110718,-0.686279,0.70343,-0.148193
1541874480125276,-0.106567,-0.683777,0.706421,-0.148621
1541874480148294,-0.102356,-0.681519,0.709167,-0.148926
1541874480169366,-0.0979004,-0.679993,0.711243,-0.148865
1541874480184370,-0.0935669,-0.679016,0.71283,-0.14856
1541874480208360,-0.0891724,-0.678528,0.713989,-0.147949
1541874480229373,-0.0848999,-0.678467,0.714722,-0.146912
1541874480244366,-0.0806885,-0.678772,0.715271,-0.145386
1541874480268401,-0.0766602,-0.67981,0.715088,-0.143616
1541874480290404,-0.072876,-0.681458,0.714355,-0.141541
1541874480304414,-0.0693359,-0.683044,0.713623,-0.139343
1541874480327432,-0.0658569,-0.684937,0.712524,-0.137207
1541874480350465,-0.0620728,-0.6875,0.710876,-0.134644
1541874480364461,-0.0576782,-0.690125,0.70929,-0.131531
1541874480387479,-0.0529785,-0.692932,0.707458,-0.128845
1541874480410497,-0.0480347,-0.696228,0.704956,-0.126404
1541874480424509,-0.0430908,-0.699402,0.702698,-0.123413
1541874480447580,-0.0384521,-0.702148,0.700867,-0.11969
1541874480470560,-0.0341187,-0.704834,0.698975,-0.116089
1541874480491616,-0.0300293,-0.708618,0.695862,-0.112854
1541874480507602,-0.0263672,-0.713013,0.692139,-0.109253
1541874480537597,-0.0236816,-0.716675,0.689026,-0.105286
1541874480551663,-0.0222778,-0.719543,0.686584,-0.101501
1541874480567621,-0.0218506,-0.722656,0.683838,-0.0980835
1541874480590677,-0.0223389,-0.725525,0.681335,-0.0943604
1541874480611710,-0.0236206,-0.727905,0.679321,-0.09021
1541874480627668,-0.0255127,-0.729797,0.677856,-0.085083
1541874480650725,-0.027771,-0.73175,0.676514,-0.078125
1541874480671721,-0.0304565,-0.733826,0.674988,-0.0702515
1541874480687714,-0.0336304,-0.735474,0.67395,-0.0615845
1541874480710733,-0.0369263,-0.737671,0.672119,-0.0524292
1541874480731769,-0.0411377,-0.739502,0.670532,-0.043457
1541874480747761,-0.0464478,-0.740479,0.669556,-0.0359497
1541874480770800,-0.0523682,-0.740845,0.669006,-0.0302124
1541874480791817,-0.0593262,-0.740417,0.669006,-0.0269775
1541874480807810,-0.0664673,-0.739929,0.668884,-0.0266724
1541874480830849,-0.0722046,-0.740417,0.667725,-0.0274048
1541874480851863,-0.076416,-0.739868,0.667908,-0.0271606
1541874480867857,-0.0789185,-0.737305,0.670471,-0.0252075
1541874480890927,-0.0794678,-0.733765,0.674438,-0.0214844
1541874480911909,-0.0783081,-0.730835,0.677856,-0.0163574
1541874480927905,-0.0767822,-0.727966,0.681213,-0.010376
1541874480950932,-0.0758057,-0.72467,0.684937,-0.0045166
1541874480971958,-0.0755615,-0.720215,0.689636,0.000305176
1541874480977962,-0.0761108,-0.71582,0.694092,0.00378418
1541874480993010,-0.0773926,-0.712219,0.697693,0.00598145
1541874481015992,-0.0800781,-0.709167,0.700439,0.00671387
1541874481038046,-0.0841064,-0.706299,0.702881,0.00622559
1541874481053021,-0.0891113,-0.703003,0.705566,0.00482178
1541874481076039,-0.0950928,-0.698914,0.708862,0.00219727
1541874481098058,-0.101318,-0.694641,0.712158,-0.0010376
1541874481113104,-0.107117,-0.691284,0.7146,-0.0043335
1541874481136069,-0.112488,-0.688416,0.716553,-0.00732422
1541874481158084,-0.117249,-0.685059,0.718933,-0.00964355
1541874481173152,-0.120972,-0.680908,0.722229,-0.0108032
1541874481196170,-0.123535,-0.676147,0.726257,-0.0111084
1541874481218187,-0.125122,-0.671692,0.730103,-0.0111084
1541874481235164,-0.126282,-0.668091,0.733154,-0.0114136
1541874481256181,-0.127747,-0.665222,0.735535,-0.0117188
1541874481278198,-0.130127,-0.661438,0.738525,-0.0119019
1541874481293210,-0.133484,-0.656372,0.742432,-0.0122681
1541874481316264,-0.137512,-0.651184,0.746277,-0.0129395
1541874481338245,-0.141541,-0.646851,0.749268,-0.013855
1541874481353258,-0.145569,-0.644043,0.750854,-0.0148315
1541874481376256,-0.149536,-0.642395,0.751526,-0.015564
1541874481398273,-0.153198,-0.640686,0.752197,-0.0158081
1541874481413340,-0.156067,-0.639587,0.752563,-0.015625
1541874481436303,-0.157959,-0.638794,0.752869,-0.0150757
1541874481454334,-0.158691,-0.638489,0.75293,-0.0144653
1541874481473392,-0.157471,-0.640198,0.75177,-0.0134277
1541874481496350,-0.154358,-0.644043,0.749146,-0.0112915
1541874481518381,-0.150452,-0.64801,0.746582,-0.00799561
1541874481533382,-0.146118,-0.651428,0.744507,-0.00402832
1541874481555396,-0.141479,-0.654785,0.742432,-0.000244141
1541874481578429,-0.136292,-0.658875,0.739746,0.003479
1541874481593446,-0.131104,-0.661926,0.737976,0.00689697
1541874481615464,-0.126038,-0.664612,0.73645,0.00866699
1541874481638481,-0.120972,-0.666626,0.735474,0.00891113
1541874481653493,-0.116638,-0.667664,0.735229,0.00750732
1541874481675494,-0.113281,-0.667847,0.735596,0.00408936
1541874481693504,-0.110962,-0.66687,0.736877,-0.000915527
1541874481713540,-0.109741,-0.664673,0.739014,-0.00714111
1541874481735558,-0.109619,-0.662292,0.741089,-0.0141602
1541874481753553,-0.110596,-0.660217,0.742554,-0.0213623
1541874481773588,-0.112061,-0.659119,0.743103,-0.0283203
1541874481795585,-0.113403,-0.658691,0.742981,-0.0345459
1541874481813599,-0.114441,-0.658325,0.74292,-0.0402832
1541874481833615,-0.114807,-0.65802,0.742798,-0.0454102
1541874481855632,-0.114136,-0.657776,0.742798,-0.0500488
1541874481873648,-0.112732,-0.657471,0.742981,-0.0545654
1541874481894663,-0.110779,-0.657227,0.743164,-0.0587769
1541874481915734,-0.108398,-0.657104,0.743286,-0.0629883
1541874481933694,-0.105591,-0.657288,0.743225,-0.0669556
1541874481954725,-0.102905,-0.657288,0.743225,-0.0706787
1541874481975746,-0.100403,-0.65741,0.743164,-0.0740356
1541874481993741,-0.0982056,-0.657349,0.743164,-0.0772095
1541874482016813,-0.0959473,-0.657471,0.743042,-0.0800781
1541874482035777,-0.0938721,-0.657043,0.743347,-0.0830078
1541874482053788,-0.0919189,-0.656433,0.743896,-0.0856323
1541874482074805,-0.0899048,-0.655579,0.744629,-0.0875854
1541874482095821,-0.0880737,-0.654541,0.745544,-0.0889893
1541874482113835,-0.0860596,-0.653931,0.746277,-0.0894775
1541874482134851,-0.0837402,-0.653198,0.747314,-0.0883789
1541874482155871,-0.0817261,-0.650696,0.75,-0.0862427
1541874482173897,-0.0807495,-0.645691,0.754578,-0.0849609
1541874482195900,-0.0803223,-0.64032,0.759155,-0.0847778
1541874482215934,-0.0802612,-0.63562,0.763184,-0.0845337
1541874482233948,-0.0813599,-0.630554,0.767212,-0.0843506
1541874482256009,-0.0834351,-0.62561,0.771057,-0.0844116
1541874482276017,-0.0861816,-0.621094,0.774414,-0.0843506
1541874482293991,-0.0893555,-0.616577,0.777649,-0.0842285
1541874482315994,-0.0927124,-0.611938,0.780945,-0.0841675
1541874482336009,-0.0955811,-0.607117,0.784363,-0.0837402
1541874482354024,-0.0979004,-0.602722,0.787537,-0.0831299
1541874482376040,-0.0996704,-0.599121,0.7901,-0.0824585
1541874482396057,-0.101135,-0.595825,0.792542,-0.0817871
1541874482414086,-0.102356,-0.592041,0.795227,-0.0811768
1541874482435107,-0.103149,-0.588318,0.797974,-0.0805054
1541874482456104,-0.103149,-0.585815,0.799866,-0.0797729
1541874482473118,-0.102295,-0.584778,0.800842,-0.0787964
1541874482496136,-0.101196,-0.584045,0.801575,-0.0778809
1541874482516171,-0.0999146,-0.584045,0.801819,-0.0772095
1541874482533185,-0.0983276,-0.584595,0.801697,-0.0765381
1541874482555182,-0.0962524,-0.584717,0.801941,-0.0757446
1541874482570194,-0.0939941,-0.585266,0.80188,-0.0751343
1541874482593212,-0.0913086,-0.586914,0.801025,-0.0747681
1541874482615229,-0.0879517,-0.589417,0.799561,-0.0743408
1541874482636249,-0.0842896,-0.592102,0.798035,-0.0737915
1541874482653261,-0.0800781,-0.595032,0.796326,-0.072876
1541874482675277,-0.0754395,-0.598022,0.794678,-0.0718994
1541874482704299,-0.0704346,-0.601685,0.792419,-0.0712891
1541874482713306,-0.0649414,-0.605835,0.789795,-0.0706787
1541874482735323,-0.0593872,-0.60968,0.787354,-0.0699463
1541874482756340,-0.0537109,-0.613281,0.784973,-0.069397
1541874482772353,-0.0481567,-0.616943,0.782471,-0.0692139
1541874482795372,-0.0423584,-0.620667,0.779907,-0.0689087
1541874482816443,-0.036499,-0.623718,0.777771,-0.0684814
1541874482833401,-0.0301514,-0.626343,0.776001,-0.0675659
1541874482855418,-0.0234375,-0.628845,0.774353,-0.0662231
1541874482876434,-0.0161133,-0.632019,0.772156,-0.0641479
1541874482893448,-0.00762939,-0.635437,0.769775,-0.0602417
1541874482915465,0.00238037,-0.638245,0.767944,-0.0535889
1541874482936481,0.0133057,-0.640808,0.766296,-0.0447388
1541874482952530,0.0245361,-0.64502,0.763,-0.0343628
1541874482975512,0.0358276,-0.650757,0.758057,-0.0229492
1541874482996528,0.046814,-0.656128,0.753113,-0.0111694
1541874483012556,0.0587769,-0.660034,0.748901,0.00195313
1541874483035559,0.0716553,-0.662292,0.745605,0.0163574
1541874483056631,0.0855103,-0.663635,0.742432,0.0319214
1541874483072608,0.100891,-0.664551,0.738892,0.0475464
1541874483095606,0.117371,-0.664917,0.734924,0.0634155
1541874483116623,0.13446,-0.664185,0.73114,0.0786743
1541874483132650,0.151794,-0.662109,0.727966,0.0928345
1541874483155654,0.16803,-0.659119,0.725342,0.105835
1541874483177671,0.183167,-0.654541,0.723877,0.118347
1541874483192737,0.197754,-0.648499,0.723389,0.130554
1541874483215716,0.213013,-0.641479,0.723083,0.142334
1541874483237728,0.229736,-0.633423,0.722778,0.153564
1541874483252785,0.247375,-0.622864,0.723633,0.164795
1541874483275768,0.26532,-0.610046,0.725586,0.176025
1541874483297800,0.282471,-0.596619,0.727356,0.1875
1541874483318802,0.297852,-0.584839,0.727478,0.200012
1541874483335795,0.310791,-0.575867,0.72522,0.21405
1541874483357829,0.321228,-0.570435,0.720154,0.229675
1541874483378843,0.32959,-0.567261,0.713257,0.246582
1541874483395881,0.336182,-0.565552,0.705139,0.264282
1541874483417860,0.341248,-0.564697,0.69635,0.282288
1541874483438931,0.346313,-0.562561,0.688049,0.300171
1541874483455909,0.351013,-0.559509,0.681152,0.315857
1541874483477917,0.35553,-0.555481,0.675842,0.328979
1541874483498943,0.359314,-0.552063,0.671265,0.339844
1541874483515937,0.36145,-0.550171,0.666809,0.349243
1541874483537954,0.361389,-0.550598,0.662354,0.357056
1541874483558970,0.359741,-0.551819,0.658875,0.36322
1541874483575984,0.357361,-0.552856,0.65686,0.367554
1541874483598001,0.354858,-0.553284,0.656433,0.370178
1541874483619017,0.352478,-0.553345,0.656921,0.371399
1541874483636051,0.349854,-0.553955,0.657593,0.371887
1541874483658049,0.34668,-0.555054,0.658447,0.371643
1541874483679084,0.343933,-0.55603,0.659424,0.371033
1541874483696099,0.34082,-0.557373,0.660217,0.370483
1541874483718096,0.336975,-0.559265,0.660767,0.370117
1541874483739166,0.332703,-0.561646,0.661377,0.369202
1541874483756143,0.328674,-0.563782,0.66217,0.368286
1541874483778162,0.325012,-0.565369,0.662842,0.367798
1541874483799208,0.321838,-0.566284,0.663574,0.36792
1541874483815227,0.319214,-0.566956,0.663696,0.369019
1541874483838205,0.316589,-0.567688,0.663147,0.371094
1541874483859206,0.313782,-0.568787,0.661865,0.374084
1541874483875218,0.310608,-0.570251,0.659973,0.377686
1541874483898237,0.306885,-0.57196,0.65802,0.381714
1541874483919256,0.303467,-0.573425,0.656006,0.38562
1541874483935287,0.300171,-0.574646,0.654175,0.389526
1541874483958304,0.297119,-0.575806,0.652344,0.39325
1541874483979356,0.294373,-0.577087,0.650269,0.396729
1541874483995332,0.292053,-0.578247,0.648376,0.399963
1541874484018350,0.290405,-0.578979,0.646667,0.402832
1541874484039402,0.289368,-0.579224,0.644958,0.405823
1541874484055381,0.288757,-0.579468,0.642822,0.409363
1541874484078398,0.288025,-0.579895,0.640015,0.413696
1541874484100397,0.286987,-0.580872,0.636353,0.41864
1541874484115426,0.285706,-0.582275,0.631897,0.424255
1541874484138446,0.283875,-0.584045,0.627075,0.430176
1541874484160453,0.281799,-0.58606,0.622131,0.435974
1541874484175470,0.279541,-0.587891,0.617493,0.441467
1541874484198527,0.277283,-0.589478,0.61322,0.446716
1541874484220489,0.274719,-0.591003,0.609497,0.451294
1541874484241521,0.272339,-0.592163,0.606689,0.455017
1541874484258575,0.27063,-0.592651,0.604858,0.457886
1541874484280552,0.269226,-0.592834,0.603699,0.459961
1541874484301573,0.2677,-0.59314,0.602722,0.461731
1541874484318579,0.264893,-0.594421,0.601379,0.463501
1541874484340583,0.261047,-0.596069,0.600098,0.46521
1541874484362621,0.256897,-0.598083,0.598755,0.466614
1541874484378630,0.252136,-0.600403,0.597595,0.467773
1541874484400637,0.246765,-0.603027,0.596497,0.468689
1541874484421667,0.240784,-0.606812,0.594971,0.468811
1541874484438675,0.232971,-0.611755,0.59375,0.467896
1541874484460698,0.223572,-0.617188,0.593323,0.465881
1541874484481715,0.212341,-0.623108,0.593811,0.462585
1541874484498729,0.199951,-0.62915,0.595215,0.458191
1541874484520745,0.186646,-0.635071,0.597412,0.452637
1541874484541761,0.172974,-0.640686,0.600464,0.446045
1541874484557774,0.158691,-0.64563,0.604492,0.438782
1541874484580793,0.143799,-0.650146,0.609009,0.430908
1541874484601809,0.127991,-0.65448,0.613953,0.422302
1541874484617820,0.111572,-0.657959,0.619324,0.413635
1541874484640839,0.0946655,-0.66095,0.624878,0.404602
1541874484661856,0.0770264,-0.663391,0.630798,0.39502
1541874484677859,0.0592041,-0.665466,0.636841,0.384827
1541874484700887,0.0414429,-0.666626,0.643188,0.374329
1541874484721883,0.0237427,-0.667053,0.649536,0.364075
1541874484737896,0.00628662,-0.666992,0.655762,0.353638
1541874484760950,-0.0111694,-0.666321,0.661865,0.343262
1541874484781950,-0.0283203,-0.665283,0.667786,0.332703
1541874484797949,-0.045105,-0.663879,0.673523,0.321838
1541874484820980,-0.0616455,-0.661987,0.67926,0.310791
1541874484841998,-0.0778809,-0.659363,0.685242,0.299316
1541874484858005,-0.0939331,-0.656433,0.690979,0.287781
1541874484881023,-0.109436,-0.653137,0.696533,0.276001
1541874484903025,-0.124268,-0.650085,0.701782,0.263489
1541874484917037,-0.138733,-0.646851,0.706726,0.25061
1541874484941110,-0.152527,-0.643005,0.711792,0.237915
1541874484962091,-0.165344,-0.639221,0.716614,0.224854
1541874484977087,-0.177307,-0.635864,0.720703,0.21167
1541874485001103,-0.188538,-0.632629,0.724426,0.198547
1541874485022119,-0.198975,-0.629578,0.727844,0.185303
1541874485037131,-0.208801,-0.626648,0.730713,0.172546
1541874485061170,-0.217834,-0.623657,0.733521,0.159973
1541874485083168,-0.225769,-0.620544,0.736267,0.147705
1541874485097231,-0.233215,-0.617737,0.738647,0.135437
1541874485121239,-0.240234,-0.615417,0.74054,0.123108
1541874485143225,-0.246765,-0.612854,0.742493,0.110657
1541874485157225,-0.252869,-0.610229,0.744263,0.0985107
1541874485181278,-0.258545,-0.607849,0.745728,0.0870972
1541874485203262,-0.263245,-0.605957,0.746826,0.0759277
1541874485224281,-0.26709,-0.604492,0.747681,0.0648804
1541874485240345,-0.270142,-0.603638,0.748108,0.0539551
1541874485263309,-0.272034,-0.603638,0.748169,0.0427246
1541874485284345,-0.272766,-0.604004,0.748169,0.0318604
1541874485300338,-0.272278,-0.604797,0.748108,0.0209351
1541874485323393,-0.268921,-0.602539,0.751282,0.0125122
1541874485344372,-0.263977,-0.600586,0.7547,0.00274658
1541874485360430,-0.256592,-0.603088,0.755188,-0.00848389
1541874485383422,-0.246704,-0.608276,0.754211,-0.0194702
1541874485404439,-0.233459,-0.613953,0.753479,-0.0281982
1541874485420433,-0.219666,-0.618164,0.753967,-0.0341797
1541874485426437,-0.207458,-0.619141,0.756409,-0.0383911
1541874485448455,-0.196899,-0.618835,0.759277,-0.0425415
1541874485471492,-0.187317,-0.6203,0.760193,-0.046875
1541874485486540,-0.17926,-0.621765,0.760742,-0.0507813
1541874485508501,-0.172852,-0.622803,0.761108,-0.0546265
1541874485531575,-0.167725,-0.624329,0.760681,-0.0587769
1541874485546534,-0.164124,-0.626221,0.759583,-0.0629883
1541874485568604,-0.161438,-0.62793,0.758423,-0.0670166
1541874485591620,-0.159729,-0.629272,0.757263,-0.071228
1541874485606581,-0.158386,-0.63031,0.756226,-0.0759888
1541874485628596,-0.157227,-0.630554,0.755676,-0.0809937
1541874485651625,-0.156372,-0.630188,0.755615,-0.0863037
1541874485666627,-0.155701,-0.629944,0.755371,-0.0916138
1541874485688698,-0.154907,-0.6297,0.755066,-0.0968628
1541874485706676,-0.154175,-0.629761,0.754517,-0.101807
1541874485726681,-0.153809,-0.629944,0.753723,-0.10675
1541874485748710,-0.153687,-0.630432,0.752625,-0.111755
1541874485766705,-0.153748,-0.631531,0.750854,-0.117065
1541874485785774,-0.153809,-0.632751,0.748962,-0.12262
1541874485808738,-0.153931,-0.634033,0.746948,-0.127991
1541874485826754,-0.154053,-0.634949,0.745239,-0.133118
1541874485845805,-0.154297,-0.635742,0.743652,-0.138184
1541874485868787,-0.154419,-0.636475,0.742065,-0.142822
1541874485886819,-0.154358,-0.636902,0.740967,-0.146484
1541874485905816,-0.153748,-0.637024,0.740479,-0.149109
1541874485928851,-0.152222,-0.637085,0.740356,-0.15094
1541874485944845,-0.149719,-0.637024,0.740723,-0.152222
1541874485973886,-0.146362,-0.63678,0.741516,-0.152527
1541874485991901,-0.142273,-0.63678,0.742432,-0.151855
1541874486006893,-0.137695,-0.637085,0.743225,-0.150818
1541874486025960,-0.13269,-0.637634,0.743896,-0.14978
1541874486048926,-0.127136,-0.638489,0.744385,-0.148621
1541874486066940,-0.121765,-0.63916,0.744995,-0.147095
1541874486086010,-0.116516,-0.639832,0.745544,-0.145569
1541874486108992,-0.111694,-0.640625,0.74585,-0.144226
1541874486127006,-0.107361,-0.641357,0.746033,-0.143311
1541874486146022,-0.103516,-0.642395,0.74585,-0.1427
1541874486169039,-0.100037,-0.643433,0.745544,-0.142151
1541874486187054,-0.0966797,-0.644165,0.745422,-0.141541
1541874486206069,-0.0935059,-0.644775,0.745361,-0.141174
1541874486229078,-0.0905151,-0.645264,0.745361,-0.141113
1541874486247096,-0.0882568,-0.645813,0.745117,-0.141113
1541874486266151,-0.0865479,-0.646667,0.744629,-0.141113
1541874486289134,-0.0855713,-0.647583,0.743896,-0.141113
1541874486307141,-0.0853882,-0.648499,0.743164,-0.141052
1541874486326158,-0.0860596,-0.649048,0.742615,-0.140808
1541874486348174,-0.0874634,-0.649048,0.742432,-0.14093
1541874486366194,-0.0892334,-0.64856,0.742554,-0.141663
1541874486386211,-0.0905762,-0.648071,0.742676,-0.142395
1541874486409210,-0.0917969,-0.646729,0.743652,-0.142578
1541874486426282,-0.0930176,-0.644836,0.745117,-0.142883
1541874486446238,-0.0946655,-0.641541,0.747437,-0.144165
1541874486468313,-0.0963135,-0.638428,0.74939,-0.146729
1541874486486300,-0.0979004,-0.635986,0.75061,-0.149963
1541874486506288,-0.0999756,-0.633911,0.751465,-0.153198
1541874486528313,-0.102783,-0.632141,0.751892,-0.156494
1541874486546317,-0.106262,-0.630859,0.75177,-0.159973
1541874486566387,-0.109497,-0.630127,0.751282,-0.162903
1541874486588404,-0.112366,-0.629944,0.750488,-0.165344
1541874486606364,-0.115112,-0.6297,0.749817,-0.167175
1541874486629418,-0.11731,-0.629639,0.749207,-0.168823
1541874486648417,-0.118591,-0.6297,0.748535,-0.170654
1541874486666411,-0.118713,-0.629822,0.747803,-0.173218
1541874486687439,-0.117859,-0.629883,0.747253,-0.176086
1541874486708464,-0.116394,-0.629761,0.746826,-0.17926
1541874486726458,-0.114807,-0.630127,0.745972,-0.182617
1541874486747490,-0.11322,-0.631287,0.744263,-0.18634
1541874486768547,-0.111816,-0.632996,0.742065,-0.190186
1541874486786506,-0.111023,-0.63501,0.739502,-0.19397
1541874486807524,-0.110596,-0.637939,0.736023,-0.197632
1541874486828593,-0.110291,-0.641968,0.731567,-0.201355
1541874486846563,-0.109924,-0.646179,0.72699,-0.20459
1541874486867570,-0.109375,-0.650391,0.722412,-0.207825
1541874486889589,-0.108398,-0.654907,0.71759,-0.210876
1541874486905616,-0.107422,-0.659729,0.712402,-0.213806
1541874486926634,-0.106995,-0.664612,0.707031,-0.216675
1541874486949688,-0.107056,-0.669983,0.701111,-0.219543
1541874486965647,-0.107361,-0.67572,0.694519,-0.222595
1541874486988684,-0.10791,-0.681641,0.687622,-0.225464
1541874487009683,-0.108643,-0.687012,0.681458,-0.227783
1541874487025693,-0.109436,-0.691406,0.67627,-0.229431
1541874487048768,-0.109436,-0.694885,0.672119,-0.231079
1541874487062723,-0.108398,-0.698364,0.668274,-0.232422
1541874487085740,-0.106445,-0.701233,0.665283,-0.233154
1541874487108778,-0.102234,-0.706055,0.660522,-0.233887
1541874487129788,-0.0997925,-0.706299,0.661072,-0.232849
1541874487145788,-0.0980835,-0.704895,0.663635,-0.23053
1541874487168827,-0.0950928,-0.7052,0.664734,-0.227661
1541874487189826,-0.0924072,-0.706299,0.664673,-0.225464
1541874487213856,-0.088501,-0.710266,0.662231,-0.221741
1541874487228853,-0.0849609,-0.710876,0.663635,-0.216919
1541874487249870,-0.0811157,-0.711487,0.665588,-0.210266
1541874487265882,-0.0765991,-0.71283,0.666687,-0.203796
1541874487287899,-0.0715942,-0.713074,0.668823,-0.197815
1541874487308915,-0.0664063,-0.712952,0.671143,-0.192017
1541874487325929,-0.0621948,-0.712952,0.673889,-0.183655
1541874487347949,-0.0576172,-0.712585,0.677307,-0.173828
1541874487369975,-0.0517578,-0.711853,0.681396,-0.162231
1541874487385988,-0.0446777,-0.711853,0.684875,-0.149292
1541874487408047,-0.0360718,-0.713257,0.686646,-0.135925
1541874487429065,-0.0279541,-0.713867,0.689087,-0.121765
1541874487446023,-0.0200195,-0.713196,0.692444,-0.107056
1541874487468041,-0.0120239,-0.711609,0.696472,-0.0916138
1541874487489112,-0.00390625,-0.710083,0.699951,-0.0764771
1541874487506073,0.00421143,-0.709229,0.702332,-0.0614014
1541874487528105,0.012146,-0.708496,0.704102,-0.0462036
1541874487549104,0.0195923,-0.706726,0.706543,-0.0311279
1541874487566117,0.0268555,-0.704773,0.70874,-0.0169678
1541874487588134,0.0339966,-0.701965,0.711365,-0.00341797
1541874487609206,0.0405884,-0.698853,0.71405,0.00909424
1541874487626185,0.0459595,-0.695801,0.716431,0.0211792
1541874487648188,0.0507813,-0.692017,0.71936,0.0327148
1541874487669254,0.0553589,-0.687561,0.722717,0.043396
1541874487685221,0.0598145,-0.683289,0.725647,0.053833
1541874487708231,0.0645752,-0.679138,0.728333,0.064209
1541874487729249,0.0701294,-0.674683,0.730957,0.0750122
1541874487745260,0.076355,-0.669617,0.733704,0.0862427
1541874487768277,0.0835571,-0.664063,0.736633,0.0970459
1541874487789307,0.0921631,-0.659424,0.738342,0.107422
1541874487805306,0.10144,-0.655151,0.73938,0.117432
1541874487828324,0.111084,-0.649719,0.741333,0.126221
1541874487849356,0.121521,-0.643188,0.744019,0.133728
1541874487865354,0.132324,-0.637085,0.746338,0.139954
1541874487888381,0.14209,-0.631897,0.747986,0.144836
1541874487911409,0.150818,-0.628113,0.748718,0.148926
1541874487925400,0.158447,-0.625244,0.748901,0.151855
1541874487948432,0.164246,-0.621216,0.750305,0.155273
1541874487971453,0.161926,-0.61853,0.752319,0.158508
1541874487992456,0.156494,-0.621155,0.751343,0.158508
1541874488008467,0.151428,-0.628906,0.74585,0.158875
1541874488030485,0.14917,-0.633972,0.741821,0.15979
1541874488051499,0.150513,-0.631958,0.742981,0.161194
1541874488068513,0.152649,-0.630005,0.74353,0.164124
1541874488090529,0.151184,-0.632996,0.740295,0.168518
1541874488111546,0.145752,-0.638733,0.735718,0.17157
1541874488128560,0.139709,-0.645813,0.730347,0.173035
1541874488150577,0.13501,-0.652893,0.724731,0.174133
1541874488171593,0.131775,-0.65741,0.720825,0.175659
1541874488188609,0.129578,-0.659668,0.718689,0.177551
1541874488210640,0.127563,-0.662048,0.716309,0.179626
1541874488231660,0.125732,-0.665527,0.712891,0.181702
1541874488248673,0.124573,-0.668579,0.709656,0.18396
1541874488270671,0.123718,-0.670593,0.707336,0.185974
1541874488291743,0.123108,-0.672241,0.705383,0.18811
1541874488308721,0.122314,-0.673828,0.703491,0.189941
1541874488330726,0.121338,-0.675476,0.70166,0.191406
1541874488351735,0.120117,-0.677063,0.700073,0.192444
1541874488368803,0.119019,-0.678406,0.698792,0.193115
1541874488390768,0.117676,-0.679688,0.697632,0.19342
1541874488411782,0.115967,-0.680969,0.696716,0.19342
1541874488428849,0.113831,-0.682007,0.696228,0.192749
1541874488450813,0.11145,-0.682678,0.696289,0.191589
1541874488471829,0.108887,-0.683533,0.696228,0.190186
1541874488488857,0.10614,-0.684875,0.695618,0.189026
1541874488510860,0.103394,-0.686157,0.694885,0.188599
1541874488531895,0.100586,-0.687195,0.694214,0.188904
1541874488548909,0.0979004,-0.6875,0.69397,0.190002
1541874488570917,0.095459,-0.687317,0.694092,0.191467
1541874488591978,0.0932617,-0.686523,0.694641,0.193359
1541874488608962,0.0914307,-0.685791,0.694946,0.19574
1541874488630955,0.0899048,-0.685181,0.695007,0.198303
1541874488652027,0.0883179,-0.684998,0.694763,0.200623
1541874488668984,0.0862427,-0.684753,0.694946,0.201843
1541874488691002,0.0844116,-0.684265,0.695618,0.201843
1541874488712018,0.0828247,-0.683228,0.697205,0.200439
1541874488728085,0.081604,-0.682068,0.699158,0.198242
1541874488751064,0.0795898,-0.681946,0.699951,0.196716
1541874488772084,0.0759277,-0.684448,0.698303,0.195313
1541874488788115,0.0705566,-0.688416,0.695679,0.192688
1541874488811096,0.0654297,-0.690857,0.69458,0.189697
1541874488833113,0.0613403,-0.690918,0.695618,0.187134
1541874488848125,0.0578613,-0.690125,0.69751,0.18396
1541874488871143,0.053833,-0.690735,0.698364,0.179565
1541874488893176,0.0487671,-0.6922,0.69873,0.174072
1541874488908192,0.043335,-0.692444,0.700317,0.167969
1541874488931194,0.0379028,-0.691772,0.702759,0.161743
1541874488953224,0.0323486,-0.691101,0.705139,0.155334
1541874488974281,0.026123,-0.690552,0.707336,0.14856
1541874488991256,0.0195923,-0.68988,0.709595,0.141846
1541874489013271,0.0127563,-0.689453,0.711487,0.134949
1541874489034289,0.0057373,-0.689209,0.713135,0.128052
1541874489051294,-0.00134277,-0.689087,0.714478,0.121277
1541874489073305,-0.00823975,-0.68927,0.715393,0.114502
1541874489094338,-0.0155029,-0.690002,0.715576,0.107422
1541874489111333,-0.0235596,-0.691162,0.715393,0.0998535
1541874489133349,-0.0314331,-0.692139,0.715149,0.0921631
1541874489154421,-0.0393066,-0.692871,0.715088,0.0839844
1541874489171433,-0.0472412,-0.69342,0.714966,0.0754395
1541874489193411,-0.0551758,-0.693298,0.715393,0.0666504
1541874489214432,-0.0634766,-0.69281,0.716064,0.0571289
1541874489231441,-0.0718994,-0.692017,0.716736,0.0471191
1541874489253442,-0.0805054,-0.690979,0.717407,0.0366821
1541874489274479,-0.0892334,-0.689941,0.717896,0.0255127
1541874489291483,-0.0982666,-0.688965,0.717957,0.0137939
1541874489313501,-0.107544,-0.688354,0.717346,0.00140381
1541874489336538,-0.117432,-0.687927,0.716125,-0.012085
1541874489350539,-0.127014,-0.6875,0.714539,-0.0256958
1541874489373538,-0.136597,-0.686218,0.713318,-0.0394897
1541874489394609,-0.146179,-0.684509,0.712158,-0.053833
1541874489410586,-0.15564,-0.682739,0.710571,-0.0686035
1541874489433604,-0.164978,-0.68103,0.708557,-0.0836792
1541874489454621,-0.174438,-0.678284,0.70697,-0.0987549
1541874489470616,-0.184082,-0.674866,0.705505,-0.113708
1541874489493646,-0.193115,-0.67157,0.703735,-0.128357
1541874489514664,-0.201294,-0.668091,0.702148,-0.14209
1541874489530671,-0.208679,-0.664551,0.700439,-0.155579
1541874489560684,-0.215027,-0.661316,0.698486,-0.169006
1541874489574750,-0.220337,-0.659058,0.695923,-0.180908
1541874489590730,-0.224915,-0.657043,0.693481,-0.191895
1541874489620732,-0.228821,-0.654724,0.691467,-0.202209
1541874489634761,-0.231873,-0.65271,0.689331,-0.21228
1541874489650811,-0.233765,-0.651428,0.686646,-0.222656
1541874489673828,-0.234924,-0.650085,0.684021,-0.233154
1541874489694809,-0.235596,-0.648865,0.681335,-0.243408
1541874489716810,-0.236084,-0.647461,0.678711,-0.253784
1541874489733875,-0.235962,-0.646729,0.675476,-0.26416
1541874489754856,-0.235413,-0.646179,0.671814,-0.275208
1541874489770864,-0.235168,-0.645447,0.66803,-0.286133
1541874489793887,-0.234802,-0.64447,0.664368,-0.296936
1541874489815884,-0.23407,-0.643372,0.660583,-0.308105
1541874489830919,-0.233093,-0.642273,0.656921,-0.318848
1541874489853934,-0.231506,-0.641357,0.653442,-0.328735
1541874489875933,-0.229797,-0.640137,0.65033,-0.33844
1541874489881936,-0.227722,-0.63916,0.646973,-0.3479
1541874489898970,-0.225586,-0.638367,0.643921,-0.356384
1541874489918985,-0.223511,-0.637512,0.641235,-0.364075
1541874489941002,-0.221741,-0.636475,0.63855,-0.371521
1541874489958015,-0.219971,-0.635742,0.635376,-0.379211
1541874489979032,-0.218201,-0.635193,0.63208,-0.386536
1541874490002049,-0.21698,-0.634216,0.629272,-0.393372
1541874490018063,-0.216003,-0.633057,0.62677,-0.399719
1541874490039079,-0.215149,-0.632019,0.624451,-0.405457
1541874490061097,-0.214172,-0.631042,0.622375,-0.410522
1541874490078105,-0.212769,-0.630554,0.620483,-0.414856
1541874490099127,-0.211121,-0.63031,0.618835,-0.418579
1541874490121145,-0.209229,-0.63031,0.617126,-0.422058
1541874490138157,-0.207153,-0.630676,0.615234,-0.425293
1541874490159173,-0.204895,-0.631226,0.613159,-0.428589
1541874490181191,-0.202515,-0.631958,0.61084,-0.431885
1541874490198205,-0.199768,-0.632751,0.608459,-0.435303
1541874490219222,-0.196777,-0.633545,0.606079,-0.438904
1541874490241239,-0.19342,-0.63446,0.60376,-0.442261
1541874490258251,-0.189453,-0.635498,0.601624,-0.445313
1541874490279269,-0.185669,-0.636414,0.599487,-0.448486
1541874490301266,-0.181824,-0.63739,0.597168,-0.451782
1541874490318294,-0.178284,-0.638367,0.594788,-0.455017
1541874490339296,-0.175232,-0.639343,0.592346,-0.458008
1541874490361368,-0.172729,-0.640076,0.589844,-0.46106
1541874490378346,-0.17041,-0.640991,0.587402,-0.463745
1541874490399362,-0.168823,-0.641479,0.585266,-0.46637
1541874490429387,-0.167603,-0.641846,0.583008,-0.469116
1541874490438393,-0.166626,-0.642395,0.580872,-0.471436
1541874490459409,-0.165405,-0.643005,0.578674,-0.473694
1541874490481410,-0.163757,-0.64386,0.576355,-0.475952
1541874490498466,-0.16156,-0.644897,0.574402,-0.4776
1541874490519454,-0.159607,-0.645752,0.572693,-0.479126
1541874490541475,-0.158142,-0.646484,0.571106,-0.480591
1541874490558470,-0.156677,-0.647217,0.569641,-0.48175
1541874490579496,-0.155334,-0.64801,0.568481,-0.482544
1541874490596517,-0.154175,-0.648743,0.567444,-0.483093
1541874490617569,-0.153564,-0.649414,0.566589,-0.483398
1541874490638550,-0.153259,-0.650085,0.56604,-0.483276
1541874490656556,-0.15332,-0.650635,0.565796,-0.482788
1541874490677571,-0.153381,-0.651245,0.565613,-0.482178
1541874490698598,-0.153442,-0.651855,0.565369,-0.481628
1541874490716605,-0.153564,-0.652344,0.565369,-0.480835
1541874490739629,-0.153687,-0.652893,0.565491,-0.479919
1541874490758644,-0.153809,-0.653137,0.565735,-0.479309
1541874490776641,-0.154297,-0.653198,0.565796,-0.479065
1541874490799677,-0.154907,-0.653015,0.565796,-0.479065
1541874490818692,-0.15564,-0.652771,0.565613,-0.47937
1541874490836688,-0.156311,-0.652527,0.565369,-0.479736
1541874490859724,-0.156982,-0.652039,0.565247,-0.480347
1541874490878739,-0.157593,-0.651428,0.565063,-0.481201
1541874490896736,-0.157959,-0.65094,0.564819,-0.482056
1541874490919770,-0.158081,-0.650452,0.564636,-0.482849
1541874490938770,-0.158264,-0.649719,0.564453,-0.483948
1541874490956782,-0.158325,-0.648987,0.564087,-0.485352
1541874490979802,-0.158569,-0.648438,0.56366,-0.486572
1541874490998833,-0.158569,-0.648132,0.562988,-0.487732
1541874491016829,-0.158691,-0.647766,0.562378,-0.488892
1541874491039866,-0.158936,-0.647461,0.562012,-0.489685
1541874491058880,-0.159058,-0.647156,0.562073,-0.489929
1541874491076876,-0.159058,-0.646973,0.562622,-0.489502
1541874491099897,-0.159119,-0.646973,0.563477,-0.488525
1541874491118963,-0.159241,-0.647156,0.564392,-0.487122
1541874491136923,-0.159424,-0.647583,0.565308,-0.485474
1541874491159941,-0.15979,-0.64801,0.566223,-0.483643
1541874491179011,-0.160034,-0.648499,0.5672,-0.481873
1541874491196970,-0.1604,-0.648987,0.568054,-0.47998
1541874491219993,-0.160706,-0.649414,0.568909,-0.478333
1541874491239004,-0.161133,-0.649658,0.56958,-0.477051
1541874491257032,-0.161499,-0.649841,0.570129,-0.476013
1541874491279053,-0.162109,-0.649902,0.570618,-0.47522
1541874491302069,-0.162842,-0.64978,0.571167,-0.474487
1541874491317080,-0.163757,-0.649536,0.57196,-0.47345
1541874491339101,-0.16449,-0.649292,0.573486,-0.471741
1541874491360117,-0.164734,-0.649109,0.576111,-0.468689
1541874491382170,-0.163818,-0.64978,0.579773,-0.46344
1541874491399129,-0.162231,-0.650818,0.583923,-0.457397
1541874491420145,-0.159973,-0.652466,0.587952,-0.450623
1541874491435170,-0.157532,-0.654358,0.591675,-0.443726
1541874491459194,-0.155029,-0.656494,0.595337,-0.436584
1541874491480203,-0.152588,-0.658386,0.599182,-0.42926
1541874491495204,-0.150818,-0.659668,0.603455,-0.421814
1541874491526243,-0.149353,-0.6604,0.608154,-0.414429
1541874491539257,-0.147949,-0.660767,0.613892,-0.405823
1541874491555254,-0.145996,-0.661804,0.620178,-0.395081
1541874491578284,-0.144165,-0.662354,0.627258,-0.383484
1541874491600303,-0.142212,-0.663025,0.634155,-0.371582
1541874491615315,-0.139587,-0.664551,0.640137,-0.359314
1541874491646323,-0.136475,-0.666321,0.64624,-0.346191
1541874491659366,-0.132629,-0.668274,0.652405,-0.33197
1541874491675347,-0.127625,-0.670715,0.65802,-0.317627
1541874491698365,-0.121521,-0.673096,0.663818,-0.30249
1541874491721382,-0.115356,-0.675354,0.669922,-0.286072
1541874491735393,-0.108521,-0.677368,0.676453,-0.267944
1541874491758429,-0.100403,-0.67926,0.682983,-0.249207
1541874491781449,-0.090332,-0.680603,0.689209,-0.231445
1541874491802500,-0.0794678,-0.682312,0.69458,-0.213745
1541874491818475,-0.0684204,-0.684326,0.699219,-0.195313
1541874491841531,-0.0568848,-0.687195,0.702576,-0.175903
1541874491862512,-0.0438843,-0.690857,0.704102,-0.158264
1541874491878507,-0.0318604,-0.693604,0.705627,-0.141479
1541874491901543,-0.0209961,-0.694885,0.707947,-0.124573
1541874491922542,-0.0107422,-0.696411,0.709473,-0.107544
1541874491938554,-0.000488281,-0.698975,0.709229,-0.0916748
1541874491961625,0.00964355,-0.7005,0.709412,-0.0772095
1541874491982606,0.0192871,-0.700256,0.710815,-0.0633545
1541874491998599,0.0278931,-0.698975,0.71283,-0.0499268
1541874492021673,0.0372314,-0.695007,0.717102,-0.0365601
1541874492042689,0.046875,-0.691528,0.720398,-0.0251465
1541874492058646,0.0557251,-0.690674,0.720886,-0.013916
1541874492081686,0.0630493,-0.690491,0.720581,-0.0032959
1541874492102681,0.069397,-0.689148,0.721252,0.0067749
1541874492118694,0.0755005,-0.687561,0.721985,0.015564
1541874492141712,0.0814209,-0.687012,0.72168,0.0238037
1541874492162744,0.086792,-0.686951,0.720825,0.0314941
1541874492178760,0.0918579,-0.686279,0.720459,0.0388184
1541874492200773,0.0973511,-0.684753,0.720764,0.0457153
1541874492222791,0.10321,-0.683472,0.720703,0.0521851
1541874492238803,0.109131,-0.682373,0.720459,0.0587158
1541874492260820,0.115112,-0.681091,0.720154,0.0650635
1541874492281823,0.121399,-0.67981,0.719788,0.071106
1541874492298835,0.127808,-0.678589,0.719177,0.0767212
1541874492320907,0.133972,-0.677551,0.718445,0.0826416
1541874492341888,0.139893,-0.676453,0.71759,0.088562
1541874492358902,0.145874,-0.675049,0.71698,0.0948486
1541874492380900,0.152344,-0.673035,0.716553,0.10144
1541874492401970,0.158997,-0.669434,0.717468,0.108826
1541874492417940,0.158508,-0.667175,0.718567,0.116089
1541874492440947,0.15332,-0.668457,0.718323,0.117188
1541874492462019,0.148926,-0.668884,0.718628,0.118225
1541874492477975,0.148254,-0.669434,0.717957,0.120056
1541874492500996,0.150757,-0.66333,0.722778,0.121765
1541874492522067,0.153809,-0.656067,0.728455,0.123291
1541874492538023,0.154968,-0.655518,0.728394,0.125122
1541874492561041,0.154114,-0.658752,0.725464,0.126587
1541874492582077,0.153381,-0.659424,0.724854,0.127441
1541874492598070,0.153198,-0.657837,0.726257,0.127625
1541874492621088,0.153076,-0.657104,0.726929,0.127808
1541874492644127,0.1521,-0.658569,0.725769,0.127747
1541874492659135,0.15094,-0.660278,0.724548,0.127319
1541874492681135,0.150085,-0.660583,0.724609,0.126648
1541874492704175,0.149536,-0.660034,0.725342,0.125916
1541874492719177,0.149292,-0.659973,0.725525,0.125427
1541874492741183,0.148926,-0.660645,0.725037,0.125061
1541874492764222,0.148621,-0.661133,0.724731,0.124817
1541874492778232,0.148499,-0.661316,0.724609,0.124695
1541874492801231,0.148376,-0.66156,0.724365,0.124634
1541874492824249,0.148071,-0.662109,0.723999,0.124573
1541874492838278,0.147827,-0.662598,0.723633,0.124451
1541874492861296,0.147583,-0.662842,0.72345,0.12439
1541874492884295,0.147583,-0.662842,0.72345,0.12439
1541874492898325,0.1474,-0.663025,0.723328,0.12439
1541874492921344,0.147278,-0.663269,0.723083,0.12439
1541874492943395,0.147217,-0.66333,0.723083,0.12439
1541874492958372,0.147217,-0.66333,0.723083,0.12439
1541874492981372,0.147217,-0.66333,0.723083,0.12439
1541874493003404,0.147217,-0.66333,0.723083,0.12439
1541874493018437,0.147278,-0.663269,0.723083,0.12439
1541874493041422,0.147278,-0.663269,0.723145,0.12439
1541874493063446,0.147217,-0.663269,0.723145,0.12439
1541874493078467,0.147217,-0.663269,0.723145,0.12439
1541874493101486,0.147217,-0.663269,0.723145,0.12439
1541874493123483,0.147156,-0.663025,0.723328,0.12439
1541874493144554,0.147156,-0.663025,0.723389,0.12439
1541874493161533,0.147095,-0.663025,0.723328,0.12439
1541874493183530,0.147156,-0.662781,0.723572,0.12439
1541874493204566,0.147339,-0.662292,0.723999,0.12439
1541874493221579,0.147522,-0.661926,0.724304,0.124329
1541874493243577,0.147644,-0.661621,0.724548,0.124268
1541874493264608,0.147705,-0.661621,0.724548,0.124268
1541874493281645,0.147583,-0.661743,0.724426,0.124207
1541874493303624,0.147461,-0.661926,0.724304,0.124207
1541874493324656,0.147156,-0.662292,0.72406,0.124268
1541874493341657,0.146606,-0.66272,0.723755,0.12439
1541874493363673,0.146179,-0.66333,0.723267,0.124634
1541874493384704,0.145813,-0.664001,0.722656,0.125
1541874493401760,0.14563,-0.664856,0.721863,0.125122
1541874493423718,0.145813,-0.666321,0.72052,0.124634
1541874493444754,0.145691,-0.668518,0.71875,0.123413
1541874493460763,0.144897,-0.670898,0.71698,0.121643
1541874493483766,0.143982,-0.672913,0.715698,0.119324
1541874493504802,0.142883,-0.6745,0.714783,0.116882
1541874493520814,0.141174,-0.676453,0.713745,0.114136
1541874493543828,0.13855,-0.678711,0.712646,0.110779
1541874493565850,0.135437,-0.680542,0.712158,0.10675
1541874493580862,0.131775,-0.681824,0.71228,0.101929
1541874493603863,0.127319,-0.683044,0.712646,0.0964966
1541874493625897,0.122375,-0.68396,0.713501,0.09021
1541874493640908,0.117004,-0.684509,0.714783,0.0829468
1541874493663926,0.110901,-0.685242,0.715881,0.0750732
1541874493685973,0.103577,-0.68634,0.716797,0.0666504
1541874493706944,0.095459,-0.687744,0.717346,0.0577393
1541874493723974,0.0866699,-0.689331,0.717651,0.0480957
1541874493745994,0.0778198,-0.690735,0.717896,0.0384521
1541874493767009,0.0687256,-0.691956,0.718079,0.0284424
1541874493784022,0.059021,-0.693604,0.717712,0.0178833
1541874493806035,0.0489502,-0.695007,0.717285,0.00714111
1541874493827038,0.0385132,-0.695801,0.717163,-0.00427246
1541874493844088,0.0281982,-0.696472,0.716797,-0.0161743
1541874493866086,0.0180054,-0.697144,0.716187,-0.0281982
