timestamp,x,y,z,w
1541872381098490,-0.310303,0.0286865,-0.115967,0.943054
1541872381120543,-0.310791,0.02948,-0.115234,0.942993
1541872381135541,-0.311096,0.0299683,-0.114502,0.942932
1541872381158541,-0.312195,0.0302124,-0.113708,0.942688
1541872381180566,-0.314331,0.0303345,-0.112671,0.942078
1541872381195589,-0.316162,0.0303345,-0.112,0.941589
1541872381234622,-0.31781,0.0303345,-0.111511,0.94104
1541872381236615,-0.319214,0.0303345,-0.110901,0.940674
1541872381249630,-0.320679,0.0301514,-0.110046,0.940247
1541872381272635,-0.322144,0.0297852,-0.108704,0.939941
1541872381286660,-0.323547,0.029541,-0.107483,0.939636
1541872381315688,-0.324219,0.0292969,-0.106384,0.939514
1541872381359725,-0.325806,0.0292969,-0.105164,0.939087
1541872381369734,-0.327209,0.0289917,-0.103821,0.938782
1541872381370714,-0.328125,0.0284424,-0.102234,0.93866
1541872381383726,-0.32959,0.027832,-0.10083,0.938293
1541872381404762,-0.330444,0.0270996,-0.0994263,0.938171
1541872381427781,-0.331238,0.0264893,-0.0975342,0.93811
1541872381445795,-0.332764,0.0257568,-0.0953369,0.937805
1541872381464811,-0.334534,0.0249634,-0.0930786,0.937439
1541872381487826,-0.336487,0.0244141,-0.0908813,0.936951
1541872381505827,-0.338623,0.0239258,-0.088623,0.936401
1541872381524856,-0.340942,0.0237427,-0.0860596,0.935852
1541872381550863,-0.343872,0.0237427,-0.083252,0.934998
1541872381564894,-0.347351,0.0238037,-0.0805054,0.93396
1541872381584910,-0.350891,0.0238647,-0.0778809,0.932861
1541872381607924,-0.354858,0.0234985,-0.0757446,0.931519
1541872381624945,-0.35907,0.022644,-0.0736694,0.930115
1541872381644960,-0.363647,0.0211182,-0.0717773,0.928528
1541872381666978,-0.368652,0.0185547,-0.0705566,0.926697
1541872381684987,-0.374878,0.0145874,-0.0701294,0.924255
1541872381704993,-0.383362,0.00866699,-0.0702515,0.920898
1541872381727063,-0.393982,0.00177002,-0.0700073,0.916443
1541872381745026,-0.403687,-0.00476074,-0.0697021,0.91217
1541872381766083,-0.411804,-0.0109253,-0.0704346,0.908447
1541872381787077,-0.421448,-0.0172729,-0.0728149,0.903748
1541872381805074,-0.432373,-0.0217285,-0.0754395,0.898254
1541872381826107,-0.442017,-0.024353,-0.0787354,0.893188
1541872381847163,-0.448059,-0.0250854,-0.0825806,0.889832
1541872381865132,-0.450195,-0.024292,-0.0870972,0.888367
1541872381886139,-0.449524,-0.0217896,-0.0924072,0.888184
1541872381907176,-0.449646,-0.017395,-0.0980835,0.887634
1541872381925173,-0.451965,-0.0109863,-0.103455,0.885925
1541872381946198,-0.454163,-0.00384521,-0.108765,0.884216
1541872381967225,-0.455261,0.00360107,-0.114502,0.882935
1541872381985220,-0.455261,0.0108643,-0.121521,0.881958
1541872382006238,-0.455872,0.0179443,-0.129639,0.880371
1541872382027294,-0.456238,0.0245361,-0.13916,0.87854
1541872382045270,-0.456177,0.0307007,-0.149109,0.87677
1541872382066287,-0.456177,0.0361328,-0.159363,0.874756
1541872382087315,-0.458191,0.0396118,-0.169922,0.871582
1541872382106323,-0.460632,0.0404663,-0.180908,0.868042
1541872382126345,-0.462891,0.0396729,-0.192993,0.864258
1541872382147369,-0.465515,0.0380249,-0.2052,0.860107
1541872382165370,-0.470154,0.0353394,-0.217163,0.854675
1541872382188404,-0.477722,0.032959,-0.229858,0.847229
1541872382207423,-0.48291,0.0299683,-0.243225,0.840698
1541872382225434,-0.487122,0.0233765,-0.257874,0.834045
1541872382254445,-0.49176,0.0151978,-0.272583,0.826843
1541872382268512,-0.496948,0.0057373,-0.287903,0.818604
1541872382284482,-0.502075,-0.00592041,-0.30249,0.810181
1541872382307501,-0.508301,-0.0183716,-0.316772,0.800598
1541872382328558,-0.515076,-0.0303955,-0.329895,0.790527
1541872382350542,-0.520752,-0.0423584,-0.342712,0.780762
1541872382367551,-0.526001,-0.0548096,-0.354553,0.771118
1541872382389565,-0.529236,-0.0685425,-0.366028,0.762451
1541872382410626,-0.530823,-0.0853271,-0.376038,0.7547
1541872382426604,-0.532959,-0.100769,-0.38501,0.746704
1541872382449604,-0.534729,-0.11438,-0.393555,0.739014
1541872382470675,-0.536316,-0.123718,-0.40094,0.732361
1541872382486646,-0.539673,-0.13092,-0.407776,0.724792
1541872382509653,-0.54303,-0.138794,-0.412537,0.718079
1541872382530690,-0.542908,-0.148254,-0.416931,0.713745
1541872382546687,-0.539856,-0.158447,-0.421204,0.711365
1541872382569717,-0.538574,-0.167969,-0.427124,0.706665
1541872382590719,-0.539856,-0.173157,-0.434937,0.699585
1541872382606735,-0.541931,-0.175659,-0.443481,0.691956
1541872382629766,-0.543762,-0.178162,-0.452148,0.684204
1541872382650769,-0.546509,-0.180725,-0.459717,0.676331
1541872382666837,-0.549255,-0.184448,-0.464661,0.669678
1541872382689821,-0.549683,-0.188843,-0.46814,0.665649
1541872382713835,-0.551636,-0.191895,-0.470825,0.661194
1541872382726887,-0.554932,-0.193115,-0.472778,0.656738
1541872382749853,-0.557373,-0.194092,-0.473694,0.653687
1541872382771885,-0.559265,-0.194946,-0.474792,0.651001
1541872382786937,-0.561462,-0.19519,-0.475281,0.648682
1541872382809903,-0.562927,-0.196411,-0.474854,0.647339
1541872382831934,-0.56366,-0.19928,-0.473755,0.646667
1541872382852955,-0.564209,-0.203796,-0.472778,0.645447
1541872382869965,-0.565186,-0.208923,-0.47229,0.643311
1541872382891971,-0.567017,-0.214111,-0.472534,0.639832
1541872382913004,-0.568298,-0.219543,-0.473755,0.635986
1541872382931000,-0.56781,-0.225769,-0.475586,0.632813
1541872382952020,-0.565918,-0.233398,-0.478027,0.629944
1541872382973054,-0.563354,-0.241699,-0.480652,0.627075
1541872382990068,-0.560425,-0.250061,-0.483887,0.623901
1541872383012082,-0.55835,-0.257202,-0.487427,0.620117
1541872383033139,-0.557312,-0.262634,-0.490967,0.615967
1541872383050117,-0.556641,-0.266663,-0.494141,0.612305
1541872383072117,-0.556152,-0.269775,-0.496826,0.609192
1541872383093153,-0.555847,-0.272278,-0.499268,0.606323
1541872383110164,-0.55658,-0.273376,-0.502075,0.602905
1541872383132168,-0.558411,-0.272949,-0.505005,0.598877
1541872383153202,-0.560791,-0.271606,-0.508179,0.594604
1541872383170197,-0.563416,-0.269226,-0.511292,0.590515
1541872383192217,-0.565674,-0.266846,-0.514343,0.586731
1541872383213251,-0.56781,-0.264587,-0.517761,0.582703
1541872383229246,-0.570618,-0.261536,-0.521606,0.577881
1541872383252284,-0.573914,-0.257813,-0.525513,0.572754
1541872383273301,-0.577332,-0.253784,-0.529236,0.567627
1541872383290315,-0.581116,-0.248596,-0.532532,0.562988
1541872383312335,-0.585266,-0.242126,-0.534851,0.559326
1541872383333388,-0.590332,-0.234985,-0.536194,0.555725
1541872383349364,-0.595642,-0.226624,-0.537048,0.552734
1541872383372384,-0.600525,-0.217529,-0.534973,0.553162
1541872383393401,-0.603516,-0.209656,-0.53241,0.555298
1541872383409414,-0.608276,-0.20105,-0.528442,0.557068
1541872383432414,-0.612244,-0.193604,-0.524536,0.559143
1541872383453449,-0.61554,-0.187012,-0.521362,0.560669
1541872383469463,-0.619751,-0.178772,-0.519165,0.560791
1541872383492482,-0.624634,-0.169128,-0.517883,0.559509
1541872383513540,-0.62915,-0.159485,-0.517517,0.557678
1541872383529513,-0.633728,-0.151245,-0.516907,0.555359
1541872383552532,-0.637268,-0.144653,-0.518494,0.551514
1541872383573549,-0.643066,-0.135803,-0.519348,0.546204
1541872383595603,-0.649475,-0.127441,-0.517822,0.542053
1541872383612599,-0.655273,-0.119446,-0.514771,0.539856
1541872383634582,-0.661255,-0.109863,-0.51062,0.538513
1541872383649609,-0.667603,-0.0974731,-0.505371,0.538025
1541872383672626,-0.6745,-0.0831299,-0.497986,0.538696
1541872383694645,-0.679199,-0.0689697,-0.489746,0.542297
1541872383715665,-0.682495,-0.0552979,-0.481079,0.547424
1541872383732680,-0.686462,-0.0401611,-0.471191,0.552429
1541872383754680,-0.689514,-0.0253296,-0.460938,0.558105
1541872383775699,-0.691345,-0.0101929,-0.449585,0.565491
1541872383792764,-0.692871,0.0055542,-0.437012,0.573547
1541872383814729,-0.694031,0.0219116,-0.423096,0.582153
1541872383835801,-0.694153,0.0385742,-0.408203,0.591614
1541872383852775,-0.693481,0.0551758,-0.392639,0.601624
1541872383874778,-0.692932,0.0728149,-0.376221,0.610779
1541872383895850,-0.692017,0.0910034,-0.359741,0.619202
1541872383912810,-0.690369,0.109192,-0.343018,0.627625
1541872383934847,-0.688171,0.12738,-0.326233,0.635376
1541872383955864,-0.685547,0.145203,-0.309143,0.642944
1541872383971877,-0.682251,0.162415,-0.291443,0.650574
1541872383994895,-0.678406,0.178589,-0.273743,0.657959
1541872384015913,-0.674133,0.193848,-0.255798,0.665222
1541872384031924,-0.670044,0.208801,-0.237549,0.67157
1541872384054928,-0.666016,0.22345,-0.219299,0.677063
1541872384075963,-0.661682,0.237671,-0.201416,0.682007
1541872384091987,-0.657349,0.25061,-0.183594,0.686584
1541872384114996,-0.65332,0.262512,-0.165527,0.690491
1541872384136016,-0.649719,0.273071,-0.147583,0.693909
1541872384152006,-0.645569,0.282227,-0.129883,0.697632
1541872384175061,-0.64209,0.290161,-0.112305,0.700684
1541872384197059,-0.638794,0.297546,-0.0946655,0.703125
1541872384212076,-0.635193,0.304321,-0.0782471,0.705505
1541872384235095,-0.631348,0.310242,-0.0631714,0.707886
1541872384256111,-0.627808,0.314819,-0.0499268,0.710083
1541872384272105,-0.625061,0.318359,-0.0380859,0.71167
1541872384295143,-0.622498,0.320923,-0.0282593,0.713257
1541872384316161,-0.619751,0.322754,-0.0204468,0.715088
1541872384332155,-0.617126,0.324219,-0.0144653,0.716797
1541872384355193,-0.614807,0.325378,-0.00976563,0.718323
1541872384376210,-0.612488,0.326843,-0.00592041,0.719727
1541872384391223,-0.609924,0.32843,-0.00274658,0.721191
1541872384415243,-0.607483,0.329346,-0.000671387,0.722778
1541872384436241,-0.604858,0.329773,0.000549316,0.724854
1541872384442265,-0.602356,0.329834,0.00244141,0.726868
1541872384459275,-0.601379,0.329285,0.00494385,0.727905
1541872384480292,-0.600647,0.328735,0.00695801,0.72876
1541872384502350,-0.599365,0.328491,0.00799561,0.729919
1541872384519339,-0.59845,0.328552,0.00921631,0.730591
1541872384540346,-0.597778,0.328064,0.010498,0.731384
1541872384562363,-0.597351,0.327759,0.012146,0.731812
1541872384577371,-0.597229,0.327332,0.0137329,0.732056
1541872384601377,-0.596985,0.326904,0.0146484,0.732483
1541872384622397,-0.596436,0.326477,0.0153198,0.733093
1541872384637407,-0.596008,0.325928,0.0165405,0.733643
1541872384660480,-0.596252,0.324951,0.0177612,0.733887
1541872384682463,-0.596497,0.323853,0.0186768,0.734131
1541872384697476,-0.596619,0.322754,0.0188599,0.734497
1541872384720495,-0.596802,0.321716,0.0180054,0.734863
1541872384742514,-0.596924,0.320679,0.0161743,0.735229
1541872384757527,-0.59729,0.319702,0.0140381,0.735413
1541872384780526,-0.597839,0.318542,0.0117188,0.735474
1541872384798593,-0.598511,0.317749,0.00933838,0.735291
1541872384817575,-0.598938,0.317261,0.00665283,0.735229
1541872384840593,-0.599121,0.316895,0.00390625,0.735229
1541872384862595,-0.599426,0.316467,0.00134277,0.735229
1541872384877659,-0.599792,0.315735,-0.00115967,0.735229
1541872384900643,-0.60022,0.314819,-0.00390625,0.735291
1541872384922661,-0.600891,0.313843,-0.00726318,0.735107
1541872384937672,-0.601807,0.312256,-0.0119019,0.734924
1541872384960692,-0.603149,0.310242,-0.0177612,0.734619
1541872384982711,-0.604797,0.307312,-0.0244141,0.734253
1541872384997723,-0.607117,0.303345,-0.0316162,0.733704
1541872385020741,-0.610229,0.298279,-0.0393066,0.732849
1541872385042759,-0.614014,0.292358,-0.0476685,0.731567
1541872385057772,-0.61853,0.285889,-0.0567017,0.729736
1541872385080788,-0.623535,0.279053,-0.0665894,0.727234
1541872385102845,-0.628418,0.271912,-0.0773315,0.72467
1541872385117821,-0.632751,0.264465,-0.0888672,0.72229
1541872385140821,-0.636719,0.256958,-0.100769,0.719971
1541872385162894,-0.640686,0.248962,-0.113159,0.717407
1541872385179856,-0.644714,0.24054,-0.125671,0.714661
1541872385199889,-0.648682,0.231689,-0.137939,0.71167
1541872385222908,-0.652649,0.222656,-0.149475,0.708618
1541872385238914,-0.656189,0.213745,-0.161194,0.705505
1541872385259938,-0.658936,0.204956,-0.173584,0.702576
1541872385282958,-0.662476,0.196411,-0.184509,0.698914
1541872385298956,-0.666199,0.187805,-0.194519,0.695068
1541872385319988,-0.668945,0.179626,-0.20459,0.69165
1541872385337991,-0.670837,0.171692,-0.214355,0.688904
1541872385359011,-0.672913,0.164429,-0.223389,0.68573
1541872385380040,-0.67511,0.157898,-0.231995,0.682251
1541872385398034,-0.677063,0.152039,-0.240417,0.678711
1541872385419057,-0.678162,0.145935,-0.248718,0.675964
1541872385440087,-0.679077,0.139648,-0.25647,0.673523
1541872385458083,-0.680542,0.133728,-0.263428,0.670532
1541872385479102,-0.682068,0.128235,-0.270569,0.667175
1541872385500171,-0.682983,0.123535,-0.277832,0.664185
1541872385523156,-0.683105,0.118713,-0.285339,0.661682
1541872385541170,-0.683655,0.11322,-0.291992,0.659241
1541872385560186,-0.685364,0.107727,-0.297607,0.655823
1541872385578182,-0.686829,0.102844,-0.303833,0.652222
1541872385601203,-0.687012,0.0982056,-0.31073,0.649414
1541872385620236,-0.686401,0.0933838,-0.317993,0.647339
1541872385638236,-0.68634,0.0877686,-0.32489,0.644714
1541872385661260,-0.687378,0.0814819,-0.331421,0.641113
1541872385680320,-0.688416,0.0751343,-0.338257,0.637268
1541872385698280,-0.688354,0.0684814,-0.345947,0.633911
1541872385720317,-0.687317,0.0614014,-0.354248,0.631165
1541872385740334,-0.686646,0.0536499,-0.362366,0.62793
1541872385758350,-0.686951,0.0454102,-0.370117,0.623779
1541872385781352,-0.6875,0.0372314,-0.377625,0.619202
1541872385800385,-0.687744,0.0296631,-0.385071,0.614685
1541872385818398,-0.687622,0.0223999,-0.392029,0.610779
1541872385840417,-0.687622,0.015686,-0.398621,0.606689
1541872385861434,-0.68811,0.00958252,-0.404785,0.602173
1541872385877438,-0.68811,0.00366211,-0.410828,0.598145
1541872385900454,-0.687561,-0.00262451,-0.416992,0.594482
1541872385921527,-0.686523,-0.00958252,-0.423645,0.590881
1541872385937478,-0.685425,-0.0169678,-0.430542,0.586975
1541872385960507,-0.684937,-0.0244141,-0.437256,0.582336
1541872385981513,-0.684692,-0.0313721,-0.444275,0.576965
1541872385997527,-0.683716,-0.0383301,-0.451721,0.571899
1541872386020562,-0.682617,-0.0457153,-0.459229,0.56665
1541872386041586,-0.681396,-0.0537109,-0.466492,0.561462
1541872386057591,-0.680176,-0.0616455,-0.473755,0.55603
1541872386079597,-0.678894,-0.0692139,-0.48114,0.550354
1541872386100631,-0.67749,-0.0758057,-0.488525,0.544617
1541872386117636,-0.676208,-0.0817261,-0.495728,0.538879
1541872386139700,-0.675049,-0.0872192,-0.503052,0.532654
1541872386160681,-0.673828,-0.0922852,-0.510437,0.526245
1541872386177695,-0.672424,-0.0975952,-0.517822,0.519897
1541872386199694,-0.670715,-0.103394,-0.525208,0.513489
1541872386220730,-0.668823,-0.109436,-0.532715,0.506897
1541872386237744,-0.666992,-0.115051,-0.5401,0.500244
1541872386259754,-0.665466,-0.119751,-0.547241,0.493408
1541872386280816,-0.664185,-0.123474,-0.553589,0.487061
1541872386296788,-0.662903,-0.126892,-0.559021,0.481628
1541872386319809,-0.661682,-0.129822,-0.563904,0.476929
1541872386340830,-0.660889,-0.131897,-0.568115,0.472412
1541872386356833,-0.660522,-0.132996,-0.571838,0.468018
1541872386379844,-0.659912,-0.134399,-0.575867,0.463562
1541872386400879,-0.658997,-0.135864,-0.5802,0.459045
1541872386416873,-0.657837,-0.137878,-0.584412,0.454773
1541872386439891,-0.655945,-0.140747,-0.588623,0.451233
1541872386460928,-0.653687,-0.143982,-0.592773,0.447937
1541872386476942,-0.6521,-0.146179,-0.596436,0.444702
1541872386499944,-0.651123,-0.147095,-0.599365,0.441833
1541872386522979,-0.650208,-0.147705,-0.601807,0.439636
1541872386544979,-0.649475,-0.14801,-0.603699,0.437988
1541872386559990,-0.648987,-0.14801,-0.605225,0.436707
1541872386583012,-0.648499,-0.14801,-0.606445,0.435669
1541872386598077,-0.647888,-0.14801,-0.607544,0.43512
1541872386620050,-0.647278,-0.14801,-0.608337,0.434875
1541872386643094,-0.646729,-0.147949,-0.609009,0.434753
1541872386657091,-0.646484,-0.147705,-0.609558,0.434448
1541872386680109,-0.646484,-0.147278,-0.610107,0.433838
1541872386703131,-0.646362,-0.146912,-0.610413,0.433716
1541872386717156,-0.64624,-0.146851,-0.610474,0.433838
1541872386740158,-0.64624,-0.146606,-0.610596,0.433716
1541872386762177,-0.646667,-0.146057,-0.610657,0.433228
1541872386777184,-0.647278,-0.145203,-0.610352,0.433044
1541872386800190,-0.647217,-0.145508,-0.609985,0.433472
1541872386823226,-0.646912,-0.146606,-0.609863,0.433716
1541872386837237,-0.647034,-0.147095,-0.609924,0.43335
1541872386860258,-0.647339,-0.147156,-0.609985,0.4328
1541872386882262,-0.647461,-0.147339,-0.609802,0.432861
1541872386897322,-0.647339,-0.147827,-0.609558,0.433167
1541872386920307,-0.6474,-0.148071,-0.609253,0.433472
1541872386942305,-0.647522,-0.148071,-0.609009,0.433533
1541872386957337,-0.647766,-0.14801,-0.608704,0.433655
1541872386980373,-0.647705,-0.148376,-0.608337,0.434082
1541872387002365,-0.647278,-0.14917,-0.608276,0.43457
1541872387023392,-0.647339,-0.149231,-0.608215,0.43457
1541872387040407,-0.647766,-0.148682,-0.608093,0.434204
1541872387062421,-0.648254,-0.147888,-0.607727,0.434387
1541872387083441,-0.648743,-0.146912,-0.606873,0.435059
1541872387100473,-0.649963,-0.144897,-0.605347,0.436035
1541872387122456,-0.651672,-0.141479,-0.603149,0.437744
1541872387143491,-0.653931,-0.136475,-0.600098,0.440125
1541872387160507,-0.656799,-0.130005,-0.596008,0.443298
1541872387182513,-0.659607,-0.123352,-0.591187,0.44751
1541872387203540,-0.662231,-0.116821,-0.585815,0.452393
1541872387219554,-0.664368,-0.110596,-0.580383,0.457825
1541872387248577,-0.666199,-0.104492,-0.575195,0.463135
1541872387263592,-0.66803,-0.0982666,-0.570129,0.468079
1541872387279602,-0.669617,-0.0921631,-0.565369,0.472778
1541872387302618,-0.670898,-0.086731,-0.561096,0.477051
1541872387323674,-0.671936,-0.081543,-0.557373,0.480896
1541872387339651,-0.672668,-0.0769653,-0.554138,0.484314
1541872387362653,-0.67334,-0.0727539,-0.55127,0.487305
1541872387383688,-0.674011,-0.0690918,-0.548584,0.489929
1541872387399702,-0.674683,-0.0655518,-0.546021,0.492371
1541872387422721,-0.675293,-0.0621948,-0.543396,0.494873
1541872387444738,-0.675842,-0.0591431,-0.540588,0.49762
1541872387459750,-0.676514,-0.0559692,-0.537292,0.500549
1541872387482770,-0.67749,-0.0523071,-0.53363,0.50354
1541872387504805,-0.678528,-0.0484009,-0.529663,0.506714
1541872387519801,-0.67981,-0.0441284,-0.525208,0.51001
1541872387542820,-0.680969,-0.0394287,-0.520325,0.513794
1541872387564855,-0.681946,-0.0340576,-0.515015,0.518311
1541872387585855,-0.682861,-0.0278931,-0.509216,0.523071
1541872387602869,-0.683594,-0.0211792,-0.503052,0.528442
1541872387624881,-0.68396,-0.0140381,-0.496338,0.534546
1541872387645940,-0.684387,-0.00616455,-0.48877,0.541077
1541872387662918,-0.685547,0.00366211,-0.480042,0.547363
1541872387684925,-0.68634,0.0147095,-0.471069,0.553894
1541872387705953,-0.686157,0.0256958,-0.461975,0.56134
1541872387722967,-0.685242,0.0354004,-0.453125,0.569153
1541872387744983,-0.684631,0.0447388,-0.44397,0.576355
1541872387766003,-0.684509,0.0541382,-0.435059,0.582458
1541872387783014,-0.684387,0.0634766,-0.426453,0.588013
1541872387805018,-0.683716,0.0721436,-0.418579,0.593445
1541872387826052,-0.682983,0.0802612,-0.41095,0.598572
1541872387843066,-0.682678,0.0880127,-0.403381,0.602905
1541872387865065,-0.682556,0.0955811,-0.395874,0.606873
1541872387886104,-0.682251,0.102844,-0.388062,0.611023
1541872387903100,-0.681396,0.109863,-0.380493,0.61554
1541872387933142,-0.680481,0.116577,-0.372803,0.619934
1541872387946152,-0.67981,0.123108,-0.364746,0.624268
1541872387963165,-0.679077,0.1297,-0.356384,0.62854
1541872387985175,-0.678101,0.136292,-0.347778,0.632996
1541872388006202,-0.676819,0.142944,-0.339294,0.637451
1541872388023206,-0.675171,0.149353,-0.330933,0.642151
1541872388045215,-0.673645,0.155701,-0.32251,0.646545
1541872388066251,-0.67218,0.161987,-0.314026,0.650635
1541872388083264,-0.670715,0.168274,-0.305603,0.654541
1541872388105263,-0.669617,0.174683,-0.296936,0.657959
1541872388126336,-0.668213,0.181152,-0.288696,0.661316
1541872388142313,-0.666626,0.187439,-0.280823,0.664551
1541872388165332,-0.665161,0.193542,-0.272705,0.667664
1541872388186350,-0.664063,0.199707,-0.264282,0.670288
1541872388210369,-0.662964,0.205933,-0.255859,0.672791
1541872388225366,-0.661316,0.211853,-0.247925,0.675537
1541872388246399,-0.659302,0.217407,-0.23999,0.678589
1541872388262403,-0.657532,0.223083,-0.231934,0.681213
1541872388285432,-0.656189,0.228821,-0.223755,0.68335
1541872388306449,-0.654663,0.234375,-0.215515,0.685547
1541872388322462,-0.653076,0.240051,-0.207153,0.687683
1541872388345480,-0.651184,0.245544,-0.198792,0.690063
1541872388367490,-0.648865,0.25116,-0.190613,0.692505
1541872388382512,-0.646667,0.256714,-0.182495,0.694702
1541872388405531,-0.644409,0.261963,-0.174255,0.69696
1541872388427539,-0.641602,0.266968,-0.166016,0.699646
1541872388442562,-0.638611,0.271912,-0.157776,0.702393
1541872388465581,-0.635498,0.276917,-0.149902,0.704956
1541872388487584,-0.63269,0.281677,-0.142395,0.707153
1541872388508617,-0.630371,0.285828,-0.135071,0.708984
1541872388525631,-0.628479,0.289429,-0.127686,0.710571
1541872388547630,-0.627075,0.292725,-0.120544,0.71167
1541872388568664,-0.625916,0.295776,-0.113525,0.712646
1541872388585679,-0.624817,0.298767,-0.106873,0.713379
1541872388607692,-0.623901,0.301697,-0.100037,0.713928
1541872388628715,-0.622925,0.304382,-0.0935669,0.714539
1541872388645728,-0.621948,0.306885,-0.086853,0.715149
1541872388667728,-0.621155,0.309326,-0.0805664,0.715515
1541872388688764,-0.620056,0.311646,-0.074585,0.716064
1541872388705774,-0.618713,0.314148,-0.0687256,0.716797
1541872388735811,-0.617065,0.316589,-0.0634155,0.71759
1541872388748813,-0.615234,0.318848,-0.05896,0.718567
1541872388765808,-0.61377,0.320557,-0.0545654,0.719421
1541872388787828,-0.612854,0.322021,-0.0500488,0.719849
1541872388808863,-0.612488,0.323425,-0.0456543,0.719849
1541872388824875,-0.611877,0.324707,-0.041687,0.720032
1541872388830880,-0.611023,0.326111,-0.0376587,0.720337
1541872388852899,-0.610474,0.327576,-0.0331421,0.720337
1541872388875917,-0.610046,0.329102,-0.0283203,0.720215
1541872388890930,-0.609192,0.330872,-0.0231323,0.720337
1541872388912930,-0.608276,0.332703,-0.0181885,0.720398
1541872388935968,-0.607117,0.334473,-0.0135498,0.720642
1541872388950979,-0.606079,0.336121,-0.0088501,0.720825
1541872388973034,-0.605408,0.337463,-0.00402832,0.720825
1541872388996016,-0.605042,0.338745,0.000183105,0.72052
1541872389011030,-0.604797,0.339844,0.0043335,0.720154
1541872389033030,-0.604797,0.340881,0.00872803,0.719604
1541872389056067,-0.604797,0.341858,0.0131836,0.719116
1541872389071080,-0.604492,0.342834,0.0178223,0.718872
1541872389093097,-0.604187,0.343628,0.0220947,0.718567
1541872389116116,-0.603699,0.34436,0.026001,0.718506
1541872389131166,-0.60321,0.345032,0.02948,0.718506
1541872389153130,-0.602478,0.345947,0.0328369,0.718506
1541872389176165,-0.60199,0.346802,0.0360718,0.718323
1541872389191178,-0.601563,0.347595,0.0388794,0.718201
1541872389213196,-0.60083,0.348511,0.0415039,0.71814
1541872389231211,-0.600159,0.349548,0.0437622,0.718079
1541872389251221,-0.599365,0.350769,0.0457764,0.718018
1541872389273245,-0.598755,0.351807,0.0473633,0.717957
1541872389290252,-0.598206,0.352661,0.0485229,0.717896
1541872389311262,-0.597778,0.353333,0.0491333,0.717896
1541872389333278,-0.597351,0.35376,0.0496826,0.718018
1541872389351290,-0.597168,0.353943,0.0497437,0.718018
1541872389370326,-0.597168,0.353943,0.0497437,0.718018
1541872389393343,-0.597229,0.353882,0.0497437,0.718018
1541872389411343,-0.59729,0.35376,0.0499268,0.718018
1541872389430375,-0.59729,0.353577,0.050293,0.718079
1541872389453394,-0.597351,0.353394,0.050415,0.71814
1541872389471408,-0.597412,0.353149,0.050415,0.71814
1541872389490459,-0.597717,0.352783,0.0505981,0.71814
1541872389513443,-0.597778,0.352478,0.0508423,0.718201
1541872389531459,-0.5979,0.352112,0.0510254,0.718262
1541872389550473,-0.598206,0.351929,0.0509033,0.71814
1541872389573476,-0.598206,0.351929,0.0509033,0.71814
1541872389591508,-0.598206,0.351929,0.0509033,0.71814
1541872389610523,-0.598206,0.351929,0.0509033,0.71814
1541872389633542,-0.598206,0.351929,0.0509033,0.71814
1541872389651552,-0.598206,0.351929,0.0509033,0.718079
1541872389670573,-0.598206,0.351929,0.0509033,0.71814
1541872389693592,-0.5979,0.352112,0.0511475,0.718201
1541872389711617,-0.597778,0.352173,0.0513916,0.718323
1541872389730623,-0.597656,0.352112,0.0512695,0.718445
1541872389753676,-0.597656,0.352112,0.0512695,0.718445
1541872389771656,-0.597656,0.352112,0.0512695,0.718445
1541872389790706,-0.597656,0.352112,0.0512695,0.718384
1541872389813726,-0.597656,0.352173,0.0512695,0.718384
1541872389831702,-0.597656,0.352173,0.0512695,0.718384
1541872389850721,-0.597839,0.35199,0.0511475,0.718384
1541872389873740,-0.598022,0.351685,0.0509033,0.718323
1541872389891736,-0.598083,0.351563,0.0507202,0.718384
1541872389912768,-0.598267,0.351318,0.0502319,0.718384
1541872389933786,-0.598328,0.351135,0.0496826,0.718445
1541872389950803,-0.598572,0.350891,0.0492554,0.718384
1541872389971821,-0.598755,0.350708,0.0488281,0.718445
1541872389993820,-0.598816,0.350586,0.0485229,0.718445
1541872390010891,-0.598633,0.350464,0.0482178,0.718628
1541872390032867,-0.598572,0.350159,0.0477295,0.718872
1541872390048884,-0.598511,0.349731,0.0471191,0.719177
1541872390070901,-0.598633,0.34906,0.0460815,0.719482
1541872390091914,-0.598877,0.348145,0.0443115,0.719849
1541872390108933,-0.599304,0.346863,0.0418701,0.720276
1541872390130943,-0.599854,0.345276,0.0391235,0.720703
1541872390153972,-0.600586,0.343445,0.0359497,0.72113
1541872390172987,-0.601318,0.34137,0.0320435,0.72168
1541872390190983,-0.601868,0.33905,0.0270996,0.722473
1541872390211999,-0.602905,0.335938,0.0215454,0.723267
1541872390233036,-0.604248,0.33252,0.0158691,0.723938
1541872390251041,-0.605896,0.328796,0.00994873,0.724304
1541872390273051,-0.607788,0.32489,0.0032959,0.724609
1541872390294083,-0.609619,0.320679,-0.00439453,0.724915
1541872390310098,-0.611389,0.316284,-0.0126953,0.72522
1541872390333119,-0.613586,0.311646,-0.0211182,0.72522
1541872390354171,-0.616272,0.306885,-0.02948,0.72467
1541872390370146,-0.619141,0.302002,-0.0386353,0.723877
1541872390393170,-0.621643,0.296936,-0.0484619,0.723206
1541872390414220,-0.623901,0.291321,-0.0585327,0.722778
1541872390430187,-0.626709,0.284973,-0.0682373,0.722046
1541872390453217,-0.630005,0.278259,-0.0776367,0.720886
1541872390474235,-0.633484,0.271484,-0.0870361,0.719299
1541872390490231,-0.636719,0.264709,-0.0968018,0.717712
1541872390513286,-0.639404,0.257751,-0.106567,0.716492
1541872390534319,-0.642456,0.250671,-0.115662,0.714844
1541872390550278,-0.645813,0.243958,-0.124512,0.712646
1541872390579321,-0.648743,0.237549,-0.133789,0.710449
1541872390594333,-0.650574,0.23114,-0.143921,0.708923
1541872390610327,-0.651794,0.224365,-0.154236,0.707825
1541872390633365,-0.653503,0.217102,-0.164063,0.706299
1541872390654384,-0.656189,0.210144,-0.173401,0.703674
1541872390670378,-0.659058,0.203552,-0.182983,0.7005
1541872390693415,-0.661133,0.196838,-0.192932,0.697815
1541872390714433,-0.662537,0.189941,-0.202515,0.695679
1541872390730427,-0.663635,0.182495,-0.211792,0.693848
1541872390753500,-0.664734,0.174927,-0.220886,0.691956
1541872390774464,-0.66571,0.167053,-0.230225,0.68988
1541872390790477,-0.667358,0.15918,-0.239929,0.686829
1541872390813507,-0.669312,0.151367,-0.25,0.683105
1541872390834532,-0.670898,0.143066,-0.260071,0.679504
1541872390850536,-0.672485,0.134338,-0.269958,0.675903
1541872390873545,-0.674072,0.125916,-0.279724,0.671936
1541872390894567,-0.675903,0.117859,-0.289246,0.66748
1541872390910594,-0.677795,0.110413,-0.298157,0.662964
1541872390932612,-0.678833,0.103027,-0.307007,0.659058
1541872390953626,-0.679626,0.0956421,-0.315186,0.655457
1541872390970625,-0.680603,0.0881958,-0.323242,0.65155
1541872390992662,-0.681396,0.0807495,-0.330627,0.647949
1541872391013683,-0.681091,0.0731201,-0.33783,0.645447
1541872391029673,-0.68042,0.0653076,-0.344849,0.643311
1541872391052705,-0.680237,0.0574341,-0.351379,0.640686
1541872391073728,-0.680908,0.0502319,-0.357361,0.637268
1541872391089722,-0.681946,0.0439453,-0.363342,0.63324
1541872391112751,-0.682251,0.038269,-0.369263,0.629883
1541872391133778,-0.682007,0.0324707,-0.375305,0.626892
1541872391149773,-0.682007,0.0266113,-0.381165,0.623596
1541872391172791,-0.682129,0.0205078,-0.387085,0.620056
1541872391193828,-0.681885,0.0144043,-0.39325,0.616577
1541872391209831,-0.681885,0.00830078,-0.399536,0.612732
1541872391232842,-0.681885,0.00262451,-0.405884,0.608582
1541872391262875,-0.68158,-0.00280762,-0.412354,0.604492
1541872391269872,-0.681091,-0.00872803,-0.418945,0.600464
1541872391292897,-0.680603,-0.0150146,-0.425171,0.596497
1541872391315928,-0.680298,-0.0211182,-0.431519,0.592102
1541872391329921,-0.679871,-0.0270386,-0.438049,0.587524
1541872391352939,-0.679199,-0.03302,-0.444641,0.583069
1541872391375977,-0.678711,-0.0391846,-0.450867,0.57843
1541872391396995,-0.678528,-0.0452271,-0.456543,0.573669
1541872391412989,-0.678162,-0.0510864,-0.46228,0.569092
1541872391436027,-0.677368,-0.0567017,-0.467834,0.564941
1541872391457045,-0.676453,-0.0620117,-0.473083,0.561035
1541872391473039,-0.675964,-0.0670166,-0.478027,0.556885
1541872391496074,-0.675232,-0.0719604,-0.482971,0.552917
1541872391517088,-0.674683,-0.0767822,-0.487793,0.548645
1541872391533089,-0.674011,-0.0819092,-0.492798,0.54425
1541872391556118,-0.673096,-0.0869751,-0.498047,0.539795
1541872391577135,-0.672058,-0.0916748,-0.503418,0.535278
1541872391593157,-0.670959,-0.0961914,-0.508789,0.530762
1541872391616157,-0.669739,-0.100708,-0.514221,0.526306
1541872391636193,-0.668274,-0.105591,-0.519592,0.521912
1541872391653188,-0.666748,-0.110535,-0.524963,0.517456
1541872391675258,-0.665222,-0.115601,-0.530273,0.512756
1541872391696241,-0.663879,-0.120422,-0.535645,0.507874
1541872391713237,-0.662537,-0.125,-0.540771,0.502991
1541872391735267,-0.661255,-0.129211,-0.545593,0.498413
1541872391756292,-0.659973,-0.133057,-0.550049,0.494263
1541872391773301,-0.658875,-0.136414,-0.553772,0.490601
1541872391795331,-0.657837,-0.139099,-0.556824,0.487732
1541872391816341,-0.657288,-0.141174,-0.559204,0.485168
1541872391833354,-0.656677,-0.143005,-0.561279,0.483032
1541872391855354,-0.65625,-0.144043,-0.56311,0.481201
1541872391876390,-0.656189,-0.144287,-0.564697,0.479309
1541872391893404,-0.656189,-0.143738,-0.566223,0.477661
1541872391915403,-0.656067,-0.143005,-0.567261,0.476807
1541872391936475,-0.655579,-0.142761,-0.56781,0.476929
1541872391953454,-0.654968,-0.143127,-0.568054,0.477356
1541872391975463,-0.654297,-0.143738,-0.56842,0.477661
1541872391996489,-0.653687,-0.143921,-0.568787,0.478027
1541872392013502,-0.65332,-0.143738,-0.56897,0.478394
1541872392035503,-0.653076,-0.143372,-0.569092,0.478699
1541872392056574,-0.652954,-0.142761,-0.569153,0.479004
1541872392073588,-0.652771,-0.142273,-0.569214,0.479309
1541872392095551,-0.652466,-0.141907,-0.569336,0.479614
1541872392116588,-0.652222,-0.141479,-0.569397,0.480103
1541872392133639,-0.651855,-0.141479,-0.569397,0.480469
1541872392155601,-0.651428,-0.141846,-0.56958,0.480713
1541872392178633,-0.651062,-0.142578,-0.570007,0.48053
1541872392193645,-0.650696,-0.143372,-0.570801,0.479858
1541872392215658,-0.650513,-0.144043,-0.571716,0.478821
1541872392245676,-0.650146,-0.145081,-0.572571,0.478027
1541872392253727,-0.649719,-0.14624,-0.573425,0.477234
1541872392275710,-0.649292,-0.147461,-0.574097,0.476624
1541872392298726,-0.648865,-0.148804,-0.574829,0.47583
1541872392312749,-0.648682,-0.149963,-0.575439,0.475098
1541872392335769,-0.648438,-0.151306,-0.575928,0.474365
1541872392357770,-0.648193,-0.152527,-0.576233,0.473938
1541872392372799,-0.64801,-0.153625,-0.576294,0.473755
1541872392395817,-0.64801,-0.154297,-0.576294,0.47345
1541872392417871,-0.648438,-0.154175,-0.576416,0.472839
1541872392432848,-0.649353,-0.153198,-0.576355,0.471924
1541872392455867,-0.651123,-0.151123,-0.575867,0.470764
1541872392477876,-0.65332,-0.147827,-0.574646,0.470276
1541872392498886,-0.655334,-0.143738,-0.572693,0.47113
1541872392515934,-0.657898,-0.138428,-0.569763,0.472717
1541872392537926,-0.660645,-0.131775,-0.565857,0.475464
1541872392558989,-0.663574,-0.124451,-0.561035,0.479004
1541872392575984,-0.66687,-0.116638,-0.555481,0.482849
1541872392597976,-0.670715,-0.108826,-0.549255,0.48645
1541872392619002,-0.674377,-0.100464,-0.542786,0.490479
1541872392636016,-0.677429,-0.092041,-0.535889,0.495483
1541872392658024,-0.679565,-0.0831299,-0.528687,0.501831
1541872392679051,-0.681274,-0.0737305,-0.521179,0.508789
1541872392695050,-0.6828,-0.0637207,-0.513489,0.515869
1541872392718063,-0.68396,-0.0533447,-0.505737,0.523071
1541872392739100,-0.685059,-0.0427856,-0.497559,0.530396
1541872392756116,-0.686035,-0.0324097,-0.488831,0.537903
1541872392778114,-0.687317,-0.0217285,-0.479553,0.545166
1541872392801153,-0.687927,-0.0111694,-0.470398,0.552612
1541872392816165,-0.687744,-0.000854492,-0.461426,0.560425
1541872392839183,-0.688354,0.00933838,-0.451599,0.567627
1541872392859200,-0.690063,0.0198975,-0.440857,0.573608
1541872392875213,-0.691956,0.0309448,-0.430237,0.578918
1541872392898221,-0.69281,0.0419922,-0.419983,0.584717
1541872392919249,-0.692749,0.0526733,-0.409973,0.590942
1541872392935263,-0.692749,0.0630493,-0.399841,0.596863
1541872392958266,-0.692566,0.0731201,-0.389526,0.602783
1541872392979298,-0.692078,0.0823975,-0.379028,0.608765
1541872392995329,-0.691345,0.0907593,-0.368774,0.614685
1541872393018320,-0.690857,0.0988159,-0.358337,0.620117
1541872393039384,-0.690125,0.106506,-0.348267,0.625427
1541872393055381,-0.689209,0.113892,-0.338318,0.630554
1541872393078381,-0.688232,0.121094,-0.328186,0.63562
1541872393100440,-0.687317,0.127747,-0.318115,0.640381
1541872393115412,-0.68634,0.134155,-0.308472,0.644775
1541872393138411,-0.685486,0.140442,-0.298889,0.648865
1541872393160441,-0.684753,0.14679,-0.289795,0.652405
1541872393175461,-0.683411,0.153198,-0.280579,0.656311
1541872393198497,-0.681763,0.159607,-0.270874,0.660583
1541872393220511,-0.680054,0.166077,-0.26062,0.664856
1541872393242516,-0.678345,0.172485,-0.250122,0.669006
1541872393244513,-0.676453,0.178772,-0.239563,0.673096
1541872393263568,-0.674622,0.185059,-0.228943,0.67688
1541872393286553,-0.672913,0.191833,-0.218323,0.680237
1541872393304567,-0.671204,0.198669,-0.20752,0.68335
1541872393323582,-0.669373,0.205505,-0.196838,0.686218
1541872393346602,-0.667419,0.212341,-0.187012,0.688843
1541872393362597,-0.665222,0.219238,-0.177856,0.691223
1541872393383631,-0.662781,0.225525,-0.168701,0.693848
1541872393406650,-0.660095,0.231628,-0.158142,0.696838
1541872393422645,-0.657654,0.237854,-0.146423,0.699585
1541872393443682,-0.655579,0.243835,-0.134338,0.701965
1541872393466697,-0.653931,0.249512,-0.122009,0.703735
1541872393482715,-0.652283,0.254272,-0.110413,0.705444
1541872393503732,-0.650085,0.258667,-0.0999146,0.707458
1541872393526740,-0.648071,0.262695,-0.0905151,0.709106
1541872393543763,-0.646362,0.266113,-0.0820923,0.710388
1541872393566783,-0.64502,0.269287,-0.0737305,0.711365
1541872393585798,-0.64386,0.272339,-0.065979,0.711975
1541872393602804,-0.642761,0.275208,-0.0593872,0.712402
1541872393623830,-0.641479,0.277954,-0.0535889,0.712952
1541872393645848,-0.640503,0.280457,-0.0476685,0.713318
1541872393662862,-0.640259,0.282898,-0.0422363,0.712891
1541872393683879,-0.639893,0.285034,-0.0372314,0.712708
1541872393705897,-0.639038,0.287048,-0.0318604,0.712891
1541872393722911,-0.638245,0.28894,-0.0264282,0.713074
1541872393743929,-0.637573,0.290527,-0.020813,0.713135
1541872393765947,-0.636963,0.291931,-0.0147705,0.713318
1541872393782978,-0.636536,0.293213,-0.00952148,0.713257
1541872393803978,-0.635742,0.294495,-0.00457764,0.71344
1541872393825996,-0.635132,0.295776,0.000244141,0.713562
1541872393843010,-0.634583,0.296936,0.00476074,0.713501
1541872393864023,-0.634155,0.298218,0.00878906,0.713318
1541872393886045,-0.633728,0.2995,0.0129395,0.713074
1541872393903059,-0.633484,0.300659,0.0169067,0.712708
1541872393924078,-0.63324,0.301941,0.0200806,0.712341
1541872393946095,-0.63269,0.303284,0.0234375,0.712158
1541872393963109,-0.632324,0.304688,0.0269165,0.711731
1541872393984127,-0.632019,0.305847,0.0303955,0.711365
1541872394006144,-0.631897,0.306519,0.0335083,0.710999
1541872394024150,-0.631836,0.307129,0.0365601,0.710693
1541872394044176,-0.632019,0.307678,0.0396729,0.710144
1541872394066194,-0.632202,0.307983,0.0428467,0.709656
1541872394084210,-0.632507,0.308105,0.0462036,0.709167
1541872394104220,-0.632751,0.307983,0.0497437,0.70874
1541872394126246,-0.633118,0.307617,0.0533447,0.708313
1541872394144259,-0.633667,0.30719,0.0566406,0.707703
1541872394164267,-0.634033,0.306763,0.0599976,0.707275
1541872394187294,-0.634277,0.306396,0.0634766,0.706909
1541872394201302,-0.634583,0.305969,0.0667725,0.706604
1541872394224322,-0.634705,0.305481,0.0700073,0.70636
1541872394241339,-0.634888,0.304932,0.0725098,0.706177
1541872394264358,-0.63501,0.304321,0.0744629,0.706116
1541872394283373,-0.635254,0.303833,0.0760498,0.705933
1541872394301368,-0.635193,0.303589,0.0775146,0.705872
1541872394324407,-0.635315,0.303467,0.0786743,0.705688
1541872394343423,-0.635315,0.303528,0.0796509,0.705627
1541872394361420,-0.635193,0.303955,0.0805054,0.705383
1541872394384456,-0.634827,0.304565,0.0811157,0.705444
1541872394403473,-0.634521,0.305298,0.0811768,0.705383
1541872394421473,-0.634094,0.306152,0.0812378,0.705383
1541872394444506,-0.633728,0.307007,0.0812988,0.705322
1541872394463521,-0.633545,0.307983,0.0814209,0.705078
1541872394481530,-0.63324,0.309082,0.0814819,0.704834
1541872394504546,-0.632935,0.310303,0.081604,0.70459
1541872394523571,-0.632507,0.311523,0.0821533,0.704346
1541872394541567,-0.632141,0.3125,0.0828857,0.704163
1541872394564605,-0.631897,0.313293,0.0837402,0.703979
1541872394583656,-0.631653,0.313965,0.0845947,0.703735
1541872394601617,-0.631287,0.314636,0.0855103,0.703613
1541872394624655,-0.630859,0.315308,0.0865479,0.703613
1541872394645672,-0.630615,0.315735,0.0876465,0.703491
1541872394660665,-0.630493,0.315857,0.0884399,0.703491
1541872394683721,-0.63031,0.315979,0.0887451,0.703552
1541872394704723,-0.63031,0.316162,0.088501,0.703491
1541872394726739,-0.630005,0.316589,0.0881958,0.703613
1541872394743753,-0.629883,0.316895,0.0878906,0.703613
1541872394764772,-0.629883,0.316895,0.0878906,0.703613
1541872394780763,-0.629883,0.316895,0.0878906,0.703552
1541872394803838,-0.629944,0.317078,0.0880127,0.70343
1541872394824854,-0.630066,0.317322,0.088501,0.703186
1541872394840812,-0.630066,0.317627,0.0894775,0.702942
1541872394863851,-0.630066,0.31781,0.0904541,0.702698
1541872394884868,-0.630005,0.317932,0.0916748,0.702576
1541872394900863,-0.629944,0.318054,0.0931396,0.702332
1541872394923937,-0.6297,0.318542,0.0950317,0.702087
1541872394944919,-0.629028,0.319336,0.0971069,0.702087
1541872394959926,-0.627563,0.321045,0.0994263,0.702271
1541872394980947,-0.626587,0.322083,0.100952,0.702454
1541872395003967,-0.625916,0.322876,0.101929,0.702515
1541872395019971,-0.625427,0.323364,0.102539,0.702637
1541872395042999,-0.625183,0.323792,0.102661,0.702698
1541872395064016,-0.625061,0.323914,0.102295,0.702759
1541872395080014,-0.625122,0.323975,0.101746,0.702759
1541872395103048,-0.625305,0.323853,0.101318,0.702759
1541872395126049,-0.625305,0.323853,0.101318,0.702698
1541872395140062,-0.625427,0.323792,0.101196,0.702698
1541872395163099,-0.625366,0.32373,0.101074,0.702759
1541872395186116,-0.625366,0.323792,0.101074,0.702759
1541872395200123,-0.625366,0.323792,0.100891,0.702759
1541872395223148,-0.625183,0.323914,0.100769,0.702881
1541872395246166,-0.625061,0.324097,0.100403,0.702942
1541872395260161,-0.625061,0.324158,0.0997314,0.703003
1541872395283178,-0.625061,0.32428,0.0988159,0.703125
1541872395306217,-0.625,0.324341,0.0978394,0.703247
1541872395320224,-0.625061,0.324463,0.0966797,0.703308
1541872395343243,-0.625,0.324585,0.09552,0.703491
1541872395366286,-0.625183,0.324402,0.0941162,0.703552
1541872395380258,-0.625427,0.324097,0.0928955,0.703674
1541872395403277,-0.62561,0.323669,0.09198,0.703796
1541872395426310,-0.625793,0.323364,0.0913696,0.703857
1541872395440307,-0.625977,0.32312,0.0907593,0.703918
1541872395463328,-0.626099,0.322815,0.0906372,0.703979
1541872395486359,-0.626282,0.322449,0.0910034,0.703918
1541872395507381,-0.626526,0.322083,0.0915527,0.703796
1541872395523382,-0.626526,0.322083,0.0922241,0.703674
1541872395546414,-0.626465,0.322205,0.0928955,0.703613
1541872395567466,-0.626282,0.32251,0.0939941,0.703491
1541872395583432,-0.626038,0.322998,0.0952148,0.703308
1541872395606498,-0.625549,0.323792,0.0964355,0.703247
1541872395627516,-0.625061,0.324524,0.0975952,0.703186
1541872395643474,-0.624451,0.325378,0.0984497,0.703186
1541872395666512,-0.623901,0.326233,0.0988159,0.703186
1541872395687530,-0.623535,0.326843,0.0988159,0.703247
1541872395704536,-0.623413,0.327148,0.0983887,0.703308
1541872395726556,-0.623474,0.327087,0.0973511,0.70343
1541872395747581,-0.623535,0.326965,0.0960693,0.703613
1541872395763574,-0.623535,0.326721,0.0944214,0.703918
1541872395786608,-0.623596,0.326416,0.0927124,0.704224
1541872395807629,-0.623413,0.326172,0.0912476,0.704651
1541872395823633,-0.623169,0.326294,0.0897827,0.705078
1541872395851665,-0.622742,0.32666,0.0881958,0.705505
1541872395866677,-0.622192,0.327026,0.0857544,0.706055
1541872395882684,-0.621521,0.327148,0.0819092,0.707092
1541872395905708,-0.621277,0.326355,0.0765381,0.708252
1541872395926726,-0.621033,0.324951,0.0700073,0.709778
1541872395942720,-0.621033,0.322571,0.0619507,0.71167
1541872395965742,-0.621094,0.319397,0.0523071,0.713806
1541872395988761,-0.621399,0.315491,0.0411987,0.716003
1541872396002770,-0.622681,0.310242,0.0282593,0.717773
1541872396025791,-0.624084,0.303833,0.0149536,0.719727
1541872396048845,-0.626282,0.296936,0.00146484,0.720825
1541872396062821,-0.63031,0.289307,-0.0130005,0.720276
1541872396085844,-0.635132,0.280518,-0.0292969,0.719055
1541872396108877,-0.639709,0.270447,-0.0465088,0.717957
1541872396129895,-0.643799,0.260742,-0.0626221,0.716675
1541872396145898,-0.648376,0.251099,-0.0783691,0.714417
1541872396168944,-0.653198,0.241882,-0.0942993,0.711243
1541872396189944,-0.657654,0.23291,-0.111084,0.707764
1541872396205937,-0.662109,0.22345,-0.126282,0.704102
1541872396228977,-0.666443,0.213989,-0.139282,0.7005
1541872396248992,-0.669983,0.205505,-0.1521,0.696899
1541872396265987,-0.671997,0.197754,-0.165833,0.694153
1541872396289027,-0.672668,0.190002,-0.180298,0.692017
1541872396310044,-0.674255,0.180725,-0.193115,0.689514
1541872396326037,-0.677429,0.171143,-0.204041,0.685669
1541872396349073,-0.681213,0.162109,-0.216003,0.680481
1541872396370073,-0.683228,0.153564,-0.229431,0.676025
1541872396386087,-0.683655,0.144836,-0.243103,0.672668
1541872396409117,-0.684448,0.135132,-0.255676,0.669312
1541872396430133,-0.686401,0.125488,-0.267273,0.664612
1541872396446136,-0.688354,0.116455,-0.279114,0.659302
1541872396469155,-0.689453,0.107422,-0.291504,0.654358
1541872396490178,-0.689453,0.0980835,-0.304382,0.649902
1541872396506204,-0.689697,0.0866089,-0.317261,0.645081
1541872396528213,-0.690186,0.0747681,-0.329773,0.639832
1541872396550222,-0.690491,0.0631104,-0.342651,0.63385
1541872396566250,-0.690002,0.0513916,-0.35614,0.628052
1541872396588274,-0.688904,0.0391846,-0.369141,0.62262
1541872396609290,-0.688171,0.0269775,-0.381287,0.61676
1541872396626306,-0.68811,0.0150757,-0.393005,0.609802
1541872396648322,-0.688232,0.00415039,-0.404297,0.602417
1541872396669339,-0.687805,-0.00622559,-0.414978,0.59552
1541872396685335,-0.686768,-0.0162354,-0.425598,0.58905
1541872396708368,-0.68573,-0.0262451,-0.43573,0.58252
1541872396729389,-0.684937,-0.0358276,-0.445374,0.5755
1541872396745383,-0.684204,-0.045166,-0.454529,0.568542
1541872396768417,-0.682861,-0.0544434,-0.463501,0.562073
1541872396789439,-0.681213,-0.0631104,-0.472046,0.55603
1541872396805442,-0.679321,-0.071106,-0.480042,0.550537
1541872396828460,-0.678223,-0.078125,-0.487061,0.544678
1541872396849483,-0.67688,-0.0845337,-0.493347,0.539734
1541872396872541,-0.675659,-0.0899048,-0.499084,0.535156
1541872396888500,-0.674194,-0.0946045,-0.504333,0.53125
1541872396911539,-0.672424,-0.0988159,-0.509399,0.527832
1541872396925531,-0.670715,-0.103027,-0.514038,0.524719
1541872396948549,-0.669067,-0.107056,-0.518372,0.521729
1541872396971589,-0.667847,-0.110718,-0.522339,0.518555
1541872396985599,-0.666443,-0.11438,-0.526184,0.515747
1541872397008609,-0.664734,-0.11853,-0.530212,0.512817
1541872397031637,-0.662781,-0.12384,-0.535095,0.508972
1541872397052655,-0.660706,-0.129517,-0.540955,0.50415
1541872397068660,-0.65863,-0.135437,-0.546692,0.499023
1541872397092687,-0.656372,-0.141541,-0.552185,0.494263
1541872397112705,-0.653931,-0.147766,-0.557434,0.489746
1541872397128699,-0.651489,-0.153748,-0.562927,0.484802
1541872397150717,-0.649597,-0.158691,-0.568176,0.479675
1541872397172781,-0.647766,-0.163269,-0.572754,0.475098
1541872397188749,-0.645813,-0.167725,-0.576599,0.471619
1541872397210784,-0.644165,-0.171387,-0.57959,0.468811
1541872397231803,-0.643188,-0.173889,-0.58197,0.46637
1541872397248819,-0.642395,-0.175476,-0.583801,0.464539
1541872397270880,-0.641785,-0.176392,-0.585022,0.463501
1541872397291852,-0.641724,-0.176453,-0.585449,0.462891
1541872397308866,-0.642029,-0.175354,-0.585449,0.462952
1541872397330882,-0.642761,-0.173523,-0.584961,0.463257
1541872397345896,-0.643982,-0.170593,-0.583984,0.463867
1541872397368915,-0.645142,-0.167725,-0.582764,0.464844
1541872397390931,-0.646362,-0.164856,-0.581299,0.466064
1541872397411951,-0.647705,-0.161682,-0.57959,0.467407
1541872397428964,-0.649536,-0.15802,-0.577393,0.468811
1541872397450979,-0.651978,-0.153503,-0.574463,0.47052
1541872397472036,-0.655396,-0.147888,-0.570251,0.472656
1541872397489015,-0.659241,-0.140869,-0.564941,0.47583
1541872397511026,-0.662659,-0.133545,-0.558655,0.480652
1541872397532050,-0.66571,-0.126465,-0.551697,0.486328
1541872397549064,-0.668762,-0.119263,-0.544556,0.492004
1541872397571079,-0.671753,-0.111755,-0.537598,0.497253
1541872397592099,-0.674988,-0.104065,-0.530762,0.501953
1541872397608094,-0.678467,-0.0961914,-0.523682,0.506165
1541872397616115,-0.681885,-0.0876465,-0.516296,0.510742
1541872397637132,-0.684814,-0.0793457,-0.508484,0.51593
1541872397659190,-0.687256,-0.0706177,-0.500244,0.522034
1541872397674167,-0.689148,-0.0618896,-0.491394,0.528992
1541872397696184,-0.691101,-0.0526733,-0.481873,0.536133
1541872397719204,-0.693176,-0.0426636,-0.471741,0.543335
1541872397734217,-0.694885,-0.0321655,-0.460938,0.551086
1541872397756235,-0.696045,-0.0218506,-0.449768,0.559326
1541872397779290,-0.696838,-0.0112915,-0.438477,0.567505
1541872397794266,-0.697327,-0.000549316,-0.427307,0.575439
1541872397816265,-0.697876,0.010376,-0.415649,0.583191
1541872397839303,-0.698059,0.0211182,-0.403931,0.59082
1541872397854316,-0.69812,0.0319214,-0.392151,0.598206
1541872397876334,-0.697876,0.0426025,-0.380249,0.605469
1541872397899353,-0.697571,0.0533447,-0.368164,0.612366
1541872397914365,-0.697144,0.0643311,-0.356201,0.618896
1541872397936384,-0.696533,0.0753174,-0.344116,0.625122
1541872397959402,-0.695618,0.0859375,-0.331726,0.631409
1541872397974414,-0.694458,0.0964355,-0.319092,0.637634
1541872397996433,-0.692627,0.106506,-0.306885,0.643982
1541872398019451,-0.690491,0.116211,-0.294739,0.65033
1541872398034464,-0.687988,0.125366,-0.282349,0.656677
1541872398056462,-0.684937,0.134521,-0.269653,0.663391
1541872398079501,-0.681458,0.14386,-0.256958,0.669983
1541872398097516,-0.678406,0.152832,-0.244263,0.675842
1541872398116531,-0.675781,0.161865,-0.231506,0.680847
1541872398139550,-0.67334,0.170959,-0.218872,0.685242
1541872398154546,-0.671082,0.180481,-0.205872,0.688965
1541872398176616,-0.668579,0.190308,-0.192993,0.692444
1541872398199637,-0.66571,0.200073,-0.180115,0.695923
1541872398214613,-0.662537,0.209167,-0.166626,0.699646
1541872398236613,-0.659241,0.217896,-0.153259,0.703125
1541872398259692,-0.656128,0.226013,-0.139648,0.706299
1541872398274663,-0.653198,0.233521,-0.126038,0.709106
1541872398296680,-0.650391,0.240112,-0.112427,0.711792
1541872398319697,-0.647583,0.246338,-0.0993652,0.714172
1541872398334704,-0.644531,0.252136,-0.0864258,0.716614
1541872398356730,-0.641418,0.257385,-0.0740356,0.718933
1541872398379745,-0.638428,0.261719,-0.0619507,0.72113
1541872398394758,-0.636169,0.265137,-0.050415,0.722778
1541872398416779,-0.634583,0.2677,-0.0393066,0.723938
1541872398434774,-0.632935,0.269958,-0.0288086,0.725037
1541872398455803,-0.631165,0.271851,-0.0189209,0.726196
1541872398477854,-0.629211,0.273499,-0.00952148,0.727417
1541872398494832,-0.627747,0.275208,-0.00012207,0.728088
1541872398515863,-0.626282,0.277283,0.0101929,0.728516
1541872398536877,-0.624512,0.280151,0.0211182,0.72876
1541872398554910,-0.62262,0.283569,0.0317993,0.728638
1541872398575910,-0.620178,0.28717,0.0426636,0.72876
1541872398596927,-0.61731,0.290894,0.0540771,0.728943
1541872398614943,-0.614624,0.294373,0.06604,0.728821
1541872398635959,-0.611877,0.297852,0.0778809,0.728577
1541872398656977,-0.608704,0.30127,0.0892334,0.728516
1541872398674987,-0.604919,0.30481,0.100464,0.72876
1541872398702014,-0.60144,0.308044,0.111694,0.728577
1541872398717025,-0.598145,0.311218,0.122803,0.728149
1541872398735041,-0.594849,0.314392,0.133972,0.7276
1541872398756058,-0.591858,0.317322,0.144592,0.726685
1541872398777059,-0.588745,0.320251,0.154358,0.725891
1541872398795126,-0.585876,0.322937,0.163513,0.725037
1541872398817090,-0.583496,0.325317,0.172668,0.723755
1541872398837125,-0.581543,0.327881,0.181702,0.721985
1541872398855141,-0.579346,0.330383,0.190491,0.720337
1541872398877154,-0.576904,0.332764,0.198792,0.718933
1541872398897175,-0.575134,0.334534,0.206726,0.717346
1541872398915185,-0.573303,0.336182,0.213928,0.715881
1541872398937188,-0.571228,0.337769,0.220886,0.714661
1541872398957224,-0.569214,0.33905,0.227661,0.713562
1541872398975230,-0.567627,0.340088,0.23407,0.712219
1541872398997238,-0.566711,0.340942,0.239929,0.710571
1541872399017274,-0.565918,0.341736,0.245483,0.708984
1541872399035272,-0.565002,0.343018,0.250854,0.707214
1541872399057308,-0.564636,0.344482,0.255615,0.705078
1541872399077323,-0.564087,0.346191,0.260254,0.703003
1541872399094338,-0.563599,0.347778,0.265137,0.700745
1541872399116336,-0.563354,0.348999,0.269958,0.698486
1541872399137374,-0.562805,0.350403,0.274414,0.696472
1541872399154391,-0.562256,0.351624,0.278809,0.694519
1541872399176386,-0.562134,0.352356,0.283081,0.692566
1541872399197422,-0.56189,0.352783,0.287842,0.690552
1541872399214417,-0.56189,0.352783,0.293091,0.688416
1541872399236436,-0.561951,0.3526,0.297974,0.68634
1541872399257472,-0.561768,0.352295,0.302856,0.684448
1541872399274468,-0.56134,0.351868,0.307861,0.6828
1541872399296499,-0.561157,0.351135,0.312805,0.681091
1541872399317521,-0.560791,0.350098,0.317932,0.679565
1541872399333534,-0.560181,0.349121,0.322815,0.678284
1541872399356552,-0.559814,0.348328,0.327026,0.676941
1541872399377570,-0.559448,0.347473,0.331116,0.67572
1541872399393579,-0.559265,0.346741,0.334473,0.674561
1541872399416598,-0.559265,0.346069,0.33728,0.673523
1541872399437620,-0.559387,0.345459,0.339905,0.672424
1541872399453624,-0.55957,0.344849,0.342041,0.671509
1541872399476652,-0.559509,0.344238,0.343811,0.670898
1541872399497652,-0.559509,0.343506,0.345459,0.670471
1541872399513682,-0.559509,0.342957,0.346863,0.670044
1541872399536703,-0.559509,0.342651,0.348206,0.669495
1541872399557719,-0.55957,0.342407,0.349487,0.668945
1541872399573715,-0.559326,0.342712,0.350464,0.668457
1541872399596751,-0.559082,0.343201,0.351318,0.667969
1541872399617768,-0.559082,0.343628,0.351868,0.66748
1541872399633772,-0.55896,0.344116,0.352661,0.66687
1541872399656801,-0.558777,0.344666,0.353638,0.666199
1541872399677817,-0.558594,0.345276,0.354614,0.665588
1541872399693814,-0.558105,0.345947,0.355469,0.665161
1541872399716851,-0.557556,0.346436,0.356506,0.664856
1541872399739872,-0.557251,0.346558,0.357666,0.664368
1541872399753860,-0.556702,0.347107,0.359192,0.663757
1541872399776883,-0.555786,0.3479,0.361084,0.663086
1541872399798909,-0.554688,0.348999,0.362976,0.662415
1541872399813921,-0.553284,0.350281,0.364929,0.661804
1541872399836993,-0.55188,0.35144,0.366882,0.661255
1541872399858959,-0.550659,0.352539,0.36853,0.660767
1541872399872962,-0.549683,0.353577,0.36969,0.6604
1541872399897033,-0.548889,0.354614,0.370239,0.660217
1541872399919000,-0.548218,0.35553,0.370605,0.660034
1541872399933029,-0.547852,0.356079,0.370605,0.660034
1541872399957045,-0.547974,0.356445,0.370178,0.660034
1541872399979066,-0.548096,0.356689,0.369568,0.660156
1541872399993058,-0.548462,0.356628,0.368958,0.660156
1541872400016096,-0.549011,0.356506,0.368225,0.660217
1541872400039116,-0.5495,0.356323,0.367615,0.660217
1541872400053124,-0.549988,0.35614,0.367371,0.660095
1541872400076145,-0.550415,0.355957,0.367249,0.659851
1541872400099150,-0.550537,0.356018,0.367432,0.659607
1541872400113158,-0.550537,0.35614,0.367798,0.659363
1541872400144201,-0.550476,0.35614,0.368164,0.65918
1541872400159208,-0.550476,0.356079,0.36853,0.658997
1541872400173206,-0.550476,0.35614,0.368774,0.658813
1541872400196232,-0.550354,0.356323,0.36908,0.658691
1541872400219264,-0.550354,0.356567,0.369019,0.65863
1541872400240281,-0.550354,0.356812,0.368896,0.658508
1541872400256276,-0.550476,0.356934,0.368774,0.658447
1541872400279304,-0.550476,0.357178,0.368591,0.658386
1541872400300326,-0.550537,0.357422,0.368347,0.658325
1541872400316338,-0.550659,0.357605,0.367981,0.658325
1541872400339365,-0.550903,0.357849,0.367676,0.658203
1541872400360415,-0.551086,0.358093,0.36731,0.658081
1541872400376376,-0.55127,0.358459,0.367004,0.657898
1541872400399416,-0.551697,0.358704,0.366699,0.657593
1541872400420464,-0.551941,0.358948,0.366455,0.65741
1541872400436433,-0.552124,0.359192,0.366333,0.657166
1541872400459461,-0.552307,0.359436,0.365967,0.657104
1541872400480480,-0.55249,0.359619,0.36554,0.657104
1541872400496483,-0.552734,0.359741,0.36499,0.657104
1541872400519511,-0.553162,0.359619,0.364319,0.657166
1541872400540529,-0.553589,0.35968,0.363525,0.657227
1541872400556526,-0.553894,0.359802,0.362427,0.657532
1541872400579561,-0.554138,0.360107,0.36084,0.65802
1541872400600579,-0.554138,0.360596,0.359192,0.65863
1541872400616572,-0.554138,0.361206,0.357239,0.659363
1541872400639603,-0.554382,0.362,0.354675,0.660156
1541872400661628,-0.554321,0.363281,0.351807,0.661011
1541872400675643,-0.55426,0.364746,0.348694,0.661926
1541872400698659,-0.554321,0.366272,0.344849,0.663086
1541872400721659,-0.554932,0.367676,0.340149,0.664185
1541872400735672,-0.555969,0.36908,0.335266,0.665039
1541872400758708,-0.556824,0.370239,0.330688,0.665955
1541872400781708,-0.557434,0.371033,0.326477,0.667053
1541872400795737,-0.558044,0.371521,0.322083,0.668396
1541872400818755,-0.559021,0.371521,0.317322,0.669861
1541872400841777,-0.559875,0.371399,0.312195,0.671631
1541872400862794,-0.560669,0.371216,0.306885,0.673523
1541872400878824,-0.561523,0.371155,0.301331,0.675293
1541872400901822,-0.5625,0.371155,0.295532,0.677124
1541872400922880,-0.56366,0.371033,0.289001,0.679016
1541872400938853,-0.565125,0.370911,0.281616,0.680908
1541872400961878,-0.566406,0.370789,0.274353,0.682922
1541872400982892,-0.56781,0.370483,0.266785,0.684937
1541872400998899,-0.569397,0.369995,0.258545,0.687073
1541872401021926,-0.570313,0.36969,0.249878,0.689636
1541872401042978,-0.571655,0.369141,0.240479,0.6922
1541872401058946,-0.573547,0.367737,0.230469,0.694702
1541872401081975,-0.576355,0.36554,0.219543,0.697144
1541872401103028,-0.579529,0.362671,0.208069,0.699524
1541872401125010,-0.581726,0.360107,0.196838,0.702209
1541872401142024,-0.583679,0.356934,0.185669,0.705261
1541872401163041,-0.587097,0.352295,0.173767,0.707825
1541872401179036,-0.591553,0.346863,0.160767,0.709839
1541872401202075,-0.595825,0.341309,0.147217,0.711914
1541872401223126,-0.599854,0.335938,0.134155,0.713623
1541872401239085,-0.603821,0.330505,0.12146,0.715088
1541872401262123,-0.608032,0.324768,0.108093,0.71637
1541872401283141,-0.61261,0.318481,0.0942993,0.717224
1541872401299135,-0.617188,0.312012,0.0805664,0.717773
1541872401322153,-0.621521,0.305359,0.0667725,0.718323
1541872401343190,-0.626099,0.297913,0.0523682,0.718689
1541872401359186,-0.63092,0.28894,0.0373535,0.719055
1541872401381258,-0.635437,0.279297,0.0232544,0.719482
1541872401402234,-0.639771,0.269531,0.0090332,0.719666
1541872401425258,-0.64386,0.259766,-0.00543213,0.719666
1541872401441307,-0.648987,0.25,-0.0209351,0.718201
1541872401462288,-0.654785,0.240173,-0.036499,0.715698
1541872401478291,-0.65979,0.230164,-0.0509644,0.713501
1541872401501358,-0.664246,0.22052,-0.0646973,0.711304
1541872401522337,-0.668213,0.211121,-0.0789185,0.708984
1541872401538341,-0.672302,0.201843,-0.093689,0.706055
1541872401561361,-0.676208,0.192322,-0.107361,0.703003
1541872401582388,-0.679993,0.182861,-0.120483,0.699768
1541872401598380,-0.682922,0.174561,-0.132935,0.696777
1541872401621410,-0.68573,0.167297,-0.145386,0.693298
1541872401644441,-0.68866,0.159607,-0.15686,0.689636
1541872401658431,-0.691467,0.151184,-0.167542,0.686279
1541872401681452,-0.693726,0.142334,-0.178528,0.683105
1541872401704488,-0.695435,0.133667,-0.190247,0.679932
1541872401718480,-0.696533,0.125183,-0.202271,0.676941
1541872401741505,-0.697754,0.116272,-0.214172,0.673645
1541872401764533,-0.699158,0.106567,-0.225464,0.670105
1541872401785590,-0.700012,0.0963745,-0.237488,0.666626
1541872401801558,-0.700745,0.0864258,-0.249878,0.662598
1541872401824587,-0.70166,0.0769653,-0.262329,0.657959
1541872401845604,-0.702332,0.0673828,-0.274231,0.653442
1541872401861597,-0.702698,0.0569458,-0.285828,0.649048
1541872401884637,-0.702637,0.0459595,-0.297729,0.644592
1541872401905653,-0.702698,0.0350952,-0.309387,0.639771
1541872401921647,-0.703369,0.0252075,-0.320801,0.63385
1541872401944719,-0.703735,0.0159302,-0.331848,0.627991
1541872401965703,-0.704163,0.00628662,-0.342346,0.62207
1541872401981698,-0.704651,-0.00384521,-0.352356,0.615845
1541872402004770,-0.704773,-0.0140991,-0.362061,0.609924
1541872402009740,-0.704285,-0.0241089,-0.372192,0.604126
1541872402031793,-0.703613,-0.0335693,-0.382324,0.598083
1541872402046771,-0.703552,-0.0424805,-0.391602,0.591492
1541872402069788,-0.703308,-0.0512695,-0.400818,0.584839
1541872402091807,-0.702271,-0.0603638,-0.409973,0.578857
1541872402106819,-0.701294,-0.069458,-0.419128,0.572449
1541872402129874,-0.699951,-0.0788574,-0.428833,0.565674
1541872402151856,-0.698303,-0.0880127,-0.439026,0.558472
1541872402166869,-0.695984,-0.097229,-0.449707,0.55127
1541872402189888,-0.692993,-0.106445,-0.46051,0.544434
1541872402211905,-0.68988,-0.115295,-0.47113,0.537476
1541872402226918,-0.686951,-0.123474,-0.481323,0.530334
1541872402249938,-0.684204,-0.130737,-0.490601,0.52356
1541872402271955,-0.681396,-0.137268,-0.499146,0.517456
1541872402286968,-0.679077,-0.1427,-0.506653,0.511719
1541872402309987,-0.677185,-0.146667,-0.512817,0.506958
1541872402328001,-0.67572,-0.149414,-0.517883,0.50293
1541872402347016,-0.67395,-0.152527,-0.522766,0.499268
1541872402370035,-0.671936,-0.155884,-0.527954,0.495483
1541872402388051,-0.6698,-0.158875,-0.533264,0.49176
1541872402407062,-0.667664,-0.161316,-0.53833,0.488342
1541872402437091,-0.665466,-0.163452,-0.542725,0.485779
1541872402448092,-0.663269,-0.165527,-0.54657,0.483765
1541872402467116,-0.661987,-0.166382,-0.549744,0.481628
1541872402497141,-0.661499,-0.166077,-0.552124,0.479614
1541872402508134,-0.661133,-0.16571,-0.554138,0.477966
1541872402527161,-0.661255,-0.164673,-0.555603,0.47644
1541872402550175,-0.661499,-0.163391,-0.556824,0.475098
1541872402567199,-0.662231,-0.161438,-0.557495,0.473999
1541872402587216,-0.662842,-0.159424,-0.557678,0.473633
1541872402610221,-0.663086,-0.158264,-0.557739,0.473572
1541872402627248,-0.663696,-0.156982,-0.5578,0.473083
1541872402647264,-0.664551,-0.15509,-0.557678,0.472656
1541872402669283,-0.664978,-0.153809,-0.557495,0.472717
1541872402687289,-0.6651,-0.153198,-0.557312,0.4729
1541872402707309,-0.665222,-0.152832,-0.556946,0.473267
1541872402729332,-0.665161,-0.152893,-0.55603,0.474426
1541872402747344,-0.664124,-0.154785,-0.55481,0.476685
1541872402767363,-0.663696,-0.156494,-0.553528,0.47821
1541872402789382,-0.664551,-0.156372,-0.552307,0.478455
1541872402807377,-0.666504,-0.154541,-0.550659,0.47821
1541872402827414,-0.668701,-0.152283,-0.548401,0.478516
1541872402849431,-0.671082,-0.149414,-0.545044,0.479858
1541872402867428,-0.674438,-0.145386,-0.540588,0.481506
1541872402887465,-0.679077,-0.139221,-0.534912,0.483032
1541872402909481,-0.684021,-0.131836,-0.528076,0.485718
1541872402927475,-0.688354,-0.124573,-0.520203,0.48999
1541872402947511,-0.692017,-0.117432,-0.511902,0.4953
1541872402969513,-0.695129,-0.109985,-0.503174,0.501587
1541872402987540,-0.697449,-0.102173,-0.494202,0.50885
1541872403007561,-0.699524,-0.093811,-0.484985,0.516418
1541872403029574,-0.702209,-0.0844727,-0.474426,0.52417
1541872403053595,-0.704712,-0.074585,-0.463013,0.532471
1541872403067611,-0.706726,-0.064209,-0.451233,0.541199
1541872403089629,-0.708618,-0.0531006,-0.438904,0.549927
1541872403107625,-0.710388,-0.0413818,-0.426453,0.55835
1541872403127660,-0.712219,-0.0292358,-0.413696,0.566345
1541872403149714,-0.713684,-0.0169678,-0.400269,0.574646
1541872403167693,-0.714905,-0.00427246,-0.386414,0.582703
1541872403188702,-0.715942,0.00897217,-0.37207,0.590759
1541872403209728,-0.716492,0.022644,-0.357361,0.598755
1541872403227742,-0.717102,0.0365601,-0.341553,0.606445
1541872403248761,-0.717102,0.050415,-0.325073,0.614441
1541872403269777,-0.71637,0.0643921,-0.308228,0.622681
1541872403287793,-0.715515,0.0783691,-0.290588,0.630493
1541872403308806,-0.714417,0.0921631,-0.27301,0.637634
1541872403329827,-0.713013,0.105225,-0.255493,0.644409
1541872403347841,-0.710999,0.118042,-0.237732,0.651184
1541872403368859,-0.708679,0.130493,-0.220337,0.657471
1541872403389912,-0.706055,0.142273,-0.203613,0.663147
1541872403407876,-0.703125,0.153503,-0.187195,0.668579
1541872403428908,-0.700012,0.163574,-0.170776,0.673828
1541872403450916,-0.696472,0.172546,-0.154541,0.679138
1541872403466927,-0.69281,0.180542,-0.138367,0.684326
1541872403488958,-0.689148,0.187073,-0.123352,0.689148
1541872403509977,-0.685242,0.192627,-0.109009,0.693909
1541872403526989,-0.681824,0.197693,-0.0950317,0.697815
1541872403548991,-0.679321,0.202576,-0.0811157,0.700684
1541872403570024,-0.677734,0.207886,-0.0673218,0.702087
1541872403587038,-0.675659,0.213562,-0.053772,0.703552
1541872403609091,-0.672119,0.21936,-0.0402832,0.706055
1541872403630074,-0.668823,0.224976,-0.0262451,0.708069
1541872403647088,-0.666565,0.230286,-0.0117798,0.708862
1541872403669107,-0.663879,0.235596,0.00238037,0.709717
1541872403690124,-0.660278,0.240417,0.0159912,0.711304
1541872403707137,-0.656738,0.245239,0.0291138,0.712524
1541872403729139,-0.653625,0.249939,0.0422363,0.713074
1541872403750174,-0.650818,0.2547,0.0551758,0.713074
1541872403767187,-0.648071,0.259644,0.0678101,0.712708
1541872403789190,-0.644653,0.264771,0.0794678,0.712708
1541872403810223,-0.641052,0.269531,0.0909424,0.712769
1541872403827237,-0.637756,0.274231,0.102356,0.712463
1541872403849240,-0.634644,0.278442,0.113281,0.711914
1541872403870271,-0.631531,0.282593,0.123596,0.711304
1541872403887286,-0.628479,0.28656,0.13324,0.710693
1541872403909295,-0.625,0.290588,0.1427,0.710327
1541872403930321,-0.621338,0.294922,0.152161,0.709778
1541872403947336,-0.617981,0.299316,0.161499,0.708801
1541872403969349,-0.614929,0.303406,0.170471,0.707642
1541872403990378,-0.611694,0.307007,0.178833,0.706787
1541872404007385,-0.608826,0.310181,0.186707,0.705872
1541872404029394,-0.606323,0.313354,0.194458,0.704468
1541872404050421,-0.604309,0.316284,0.20166,0.702881
1541872404067429,-0.602234,0.319092,0.207947,0.701599
1541872404089434,-0.600586,0.321167,0.213684,0.700317
1541872404110470,-0.599304,0.322632,0.219543,0.698914
1541872404127471,-0.598755,0.323669,0.225159,0.697144
1541872404149483,-0.598083,0.324646,0.230591,0.695496
1541872404170520,-0.597351,0.3255,0.23584,0.69397
1541872404186532,-0.596313,0.326172,0.240723,0.692871
1541872404209551,-0.595398,0.326477,0.245667,0.691772
1541872404230603,-0.594543,0.326233,0.250854,0.690674
1541872404246583,-0.594116,0.325684,0.255798,0.689514
1541872404269583,-0.593567,0.325073,0.260681,0.688477
1541872404290618,-0.593201,0.324524,0.265686,0.687195
1541872404306613,-0.592834,0.324097,0.270752,0.685669
1541872404329650,-0.592468,0.323669,0.27594,0.684143
1541872404350702,-0.592285,0.323242,0.28064,0.682556
1541872404366681,-0.59198,0.322693,0.285461,0.681091
1541872404389701,-0.591675,0.322266,0.290466,0.679443
1541872404411710,-0.591064,0.321777,0.295471,0.67804
1541872404426730,-0.59021,0.32135,0.300476,0.676819
1541872404456736,-0.589722,0.32074,0.305176,0.675415
1541872404471750,-0.588928,0.320313,0.309265,0.674438
1541872404486780,-0.588257,0.32019,0.312683,0.673523
1541872404509799,-0.587463,0.320251,0.315674,0.672791
1541872404531800,-0.587158,0.32019,0.318176,0.671875
1541872404552870,-0.586975,0.320313,0.319885,0.671143
1541872404569849,-0.586609,0.320801,0.32135,0.670593
1541872404591857,-0.586243,0.321472,0.32251,0.669983
1541872404606870,-0.585815,0.322144,0.323364,0.669678
1541872404629899,-0.585327,0.322998,0.323792,0.669434
1541872404651897,-0.585144,0.323608,0.32428,0.669128
1541872404666914,-0.5849,0.324158,0.324585,0.668884
1541872404689948,-0.584717,0.324829,0.325012,0.668518
1541872404711956,-0.584595,0.325256,0.325439,0.668213
1541872404725978,-0.584656,0.3255,0.325928,0.667847
1541872404749999,-0.584717,0.325684,0.32666,0.667297
1541872404772008,-0.584595,0.32605,0.327759,0.666687
1541872404786041,-0.58429,0.32666,0.329041,0.666077
1541872404810043,-0.583862,0.327393,0.3302,0.665466
1541872404832054,-0.583313,0.328369,0.331238,0.664978
1541872404846069,-0.582642,0.329346,0.332397,0.66449
1541872404869096,-0.58197,0.330261,0.333557,0.664001
1541872404892114,-0.581238,0.331299,0.334534,0.663635
1541872404906123,-0.580505,0.332397,0.335205,0.663391
1541872404929145,-0.579773,0.333496,0.335449,0.663391
1541872404952164,-0.579102,0.334595,0.335144,0.663574
1541872404973216,-0.578613,0.335632,0.334595,0.663696
1541872404989176,-0.57843,0.336426,0.333984,0.663818
1541872405012204,-0.578247,0.337097,0.333435,0.663879
1541872405033230,-0.57843,0.337646,0.332764,0.663757
1541872405049224,-0.578674,0.338135,0.332153,0.663635
1541872405072264,-0.578735,0.338684,0.331909,0.663391
1541872405093280,-0.578979,0.338989,0.331848,0.663086
1541872405109274,-0.579102,0.339172,0.332092,0.66272
1541872405132295,-0.579163,0.339294,0.332642,0.662415
1541872405153329,-0.578857,0.3396,0.333496,0.662048
1541872405169339,-0.578186,0.340271,0.334717,0.661682
1541872405184352,-0.577209,0.341187,0.336304,0.661316
1541872405205353,-0.576355,0.34198,0.337402,0.661072
1541872405221367,-0.575623,0.34259,0.338257,0.66095
1541872405244385,-0.574829,0.343262,0.338745,0.661011
1541872405265402,-0.574341,0.343872,0.338684,0.661133
1541872405281419,-0.573975,0.34436,0.33844,0.661377
1541872405304434,-0.573792,0.344788,0.338135,0.661438
1541872405333478,-0.573792,0.344971,0.337708,0.661621
1541872405349471,-0.573792,0.345276,0.337097,0.661682
1541872405372493,-0.573914,0.34552,0.336487,0.661743
1541872405393565,-0.574219,0.34552,0.335876,0.661804
1541872405409522,-0.574585,0.345337,0.33551,0.661804
1541872405432559,-0.574829,0.345276,0.335388,0.661682
1541872405454568,-0.57489,0.345215,0.33551,0.66156
1541872405469581,-0.57489,0.345215,0.335571,0.66156
1541872405492603,-0.57489,0.345215,0.335571,0.66156
1541872405514612,-0.57489,0.345276,0.335571,0.66156
1541872405528632,-0.57489,0.345276,0.335571,0.66156
1541872405552652,-0.57489,0.345276,0.335571,0.66156
1541872405574677,-0.574829,0.345398,0.335327,0.661621
1541872405588676,-0.574768,0.34552,0.3349,0.661865
1541872405611707,-0.57489,0.345581,0.33429,0.661987
1541872405634726,-0.574951,0.34552,0.333801,0.662231
1541872405648735,-0.575195,0.345459,0.333191,0.662354
1541872405671753,-0.575317,0.345337,0.332825,0.662537
1541872405694775,-0.575439,0.345276,0.332458,0.662598
1541872405708778,-0.575745,0.345276,0.332153,0.662537
1541872405731803,-0.575745,0.345215,0.332153,0.662537
1541872405754816,-0.575745,0.345215,0.332092,0.662537
1541872405768819,-0.575867,0.345337,0.33197,0.662537
1541872405791852,-0.575806,0.34552,0.331665,0.662537
1541872405814892,-0.575989,0.345764,0.331238,0.662537
1541872405828866,-0.576294,0.346069,0.330627,0.662415
1541872405851886,-0.576782,0.346436,0.329895,0.66217
1541872405874919,-0.577087,0.346863,0.329224,0.661926
1541872405895977,-0.577393,0.347107,0.32843,0.661987
1541872405911941,-0.577698,0.347351,0.327148,0.662231
1541872405934969,-0.578064,0.347473,0.325745,0.662537
1541872405955992,-0.578369,0.347778,0.324341,0.662781
1541872405971984,-0.578674,0.348022,0.322937,0.663086
1541872405995023,-0.578796,0.34845,0.321472,0.663452
1541872406016041,-0.578674,0.34906,0.319885,0.664001
1541872406032033,-0.57843,0.349854,0.317932,0.664734
1541872406055071,-0.578186,0.350891,0.31543,0.665649
1541872406076090,-0.57782,0.351929,0.3125,0.666748
1541872406092084,-0.577637,0.352966,0.308655,0.668152
1541872406115119,-0.577576,0.354004,0.304016,0.6698
1541872406136139,-0.577759,0.354797,0.298401,0.671692
1541872406151133,-0.578491,0.355408,0.291626,0.673767
1541872406175206,-0.579163,0.355835,0.283997,0.67627
1541872406196184,-0.579956,0.35614,0.275635,0.678833
1541872406211198,-0.581421,0.355957,0.266479,0.681335
1541872406234220,-0.583435,0.355042,0.256226,0.684021
1541872406255238,-0.585632,0.353394,0.245117,0.687073
1541872406271241,-0.587646,0.351379,0.233337,0.69043
1541872406294270,-0.589355,0.349182,0.221191,0.694092
1541872406317288,-0.59137,0.346436,0.208374,0.697693
1541872406331285,-0.593811,0.343079,0.194885,0.701172
1541872406354318,-0.596252,0.338745,0.18158,0.704773
1541872406377333,-0.599121,0.333923,0.168335,0.707886
1541872406399398,-0.602722,0.328491,0.15509,0.710449
1541872406414369,-0.606689,0.322083,0.140381,0.713074
1541872406420373,-0.610046,0.315186,0.126221,0.715881
1541872406442392,-0.613525,0.307983,0.112122,0.718445
1541872406459406,-0.617676,0.300293,0.0988159,0.720093
1541872406480424,-0.622375,0.292297,0.0854492,0.721008
1541872406502441,-0.626892,0.284668,0.0713501,0.72168
1541872406519456,-0.630859,0.277344,0.057251,0.722351
1541872406540473,-0.634827,0.270081,0.0443115,0.722534
1541872406562490,-0.638977,0.262756,0.0322266,0.722229
1541872406579505,-0.643311,0.255859,0.0203857,0.721252
1541872406600559,-0.6474,0.249268,0.00799561,0.720215
1541872406622540,-0.65033,0.242493,-0.00457764,0.719849
1541872406639552,-0.653015,0.235291,-0.0164795,0.719666
1541872406660571,-0.655884,0.228027,-0.0283203,0.718994
1541872406682589,-0.658936,0.220947,-0.0404663,0.717834
1541872406699594,-0.661987,0.213196,-0.0529175,0.716553
1541872406720616,-0.664551,0.205139,-0.0650635,0.715576
1541872406742639,-0.667603,0.197021,-0.0769653,0.713867
1541872406758652,-0.671448,0.188904,-0.088501,0.71106
1541872406780666,-0.675476,0.180298,-0.0998535,0.708008
1541872406802684,-0.678772,0.17157,-0.11084,0.705322
1541872406818743,-0.681396,0.163513,-0.121521,0.703003
1541872406839718,-0.68335,0.156311,-0.131958,0.700867
1541872406862738,-0.684875,0.149292,-0.141968,0.698914
1541872406878748,-0.686096,0.141846,-0.151611,0.697266
1541872406899769,-0.687439,0.133911,-0.160889,0.695435
1541872406922787,-0.688904,0.125916,-0.170288,0.693237
1541872406938784,-0.689819,0.118286,-0.17981,0.691284
1541872406959818,-0.690125,0.110718,-0.189453,0.689636
1541872406982837,-0.690125,0.103149,-0.198792,0.688171
1541872406998830,-0.690063,0.0950928,-0.207764,0.686768
1541872407019903,-0.689575,0.086792,-0.216431,0.685669
1541872407042887,-0.688721,0.078186,-0.225464,0.684631
1541872407058894,-0.688354,0.0692139,-0.234558,0.682922
1541872407079917,-0.689453,0.0601807,-0.243469,0.679504
1541872407102936,-0.691345,0.0516357,-0.252258,0.67511
1541872407118940,-0.692017,0.043335,-0.261658,0.671448
1541872407139967,-0.691223,0.0345459,-0.271118,0.668945
1541872407163023,-0.690796,0.0254517,-0.280518,0.665955
1541872407178981,-0.691711,0.0168457,-0.289673,0.661316
1541872407200016,-0.692627,0.00897217,-0.298462,0.656616
1541872407223034,-0.692444,0.00109863,-0.30719,0.652832
1541872407239029,-0.691895,-0.00665283,-0.315857,0.649231
1541872407260066,-0.69165,-0.0141602,-0.324158,0.645264
1541872407283085,-0.691833,-0.0213013,-0.332092,0.640808
1541872407301091,-0.692078,-0.0280762,-0.3396,0.636353
1541872407320115,-0.691833,-0.0350342,-0.346985,0.632263
1541872407343116,-0.691956,-0.0415039,-0.354004,0.627869
1541872407361163,-0.692261,-0.0467529,-0.360229,0.623535
1541872407380164,-0.692261,-0.0511475,-0.365906,0.619934
1541872407403166,-0.692078,-0.0552368,-0.371033,0.616699
1541872407420198,-0.691772,-0.059082,-0.375854,0.613831
1541872407440194,-0.691406,-0.0630493,-0.38031,0.611084
1541872407463213,-0.69104,-0.0669556,-0.384888,0.608215
1541872407480282,-0.690369,-0.0707397,-0.389465,0.605591
1541872407500264,-0.690186,-0.0744019,-0.39386,0.602478
1541872407522282,-0.689941,-0.078064,-0.398193,0.599487
1541872407540330,-0.68927,-0.0821533,-0.402588,0.596802
1541872407560312,-0.688171,-0.086792,-0.407104,0.594299
1541872407578328,-0.687378,-0.0910645,-0.41156,0.591492
1541872407600333,-0.686584,-0.0950928,-0.416016,0.588623
1541872407620348,-0.685547,-0.0990601,-0.420532,0.585999
1541872407638376,-0.684631,-0.103271,-0.424988,0.583191
1541872407660392,-0.683533,-0.107666,-0.429382,0.580444
1541872407680411,-0.682495,-0.112244,-0.433838,0.577454
1541872407698426,-0.681458,-0.116821,-0.438477,0.574219
1541872407720426,-0.68042,-0.121338,-0.443237,0.570862
1541872407740460,-0.679138,-0.125793,-0.448059,0.567627
1541872407758476,-0.677551,-0.130371,-0.453003,0.564575
1541872407780474,-0.675964,-0.134888,-0.457764,0.561584
1541872407800546,-0.674438,-0.139221,-0.462463,0.558533
1541872407818525,-0.673157,-0.143188,-0.46698,0.555298
1541872407839534,-0.671997,-0.146667,-0.471436,0.552002
1541872407860559,-0.671204,-0.149597,-0.475098,0.549011
1541872407876553,-0.670471,-0.152405,-0.478333,0.546326
1541872407899573,-0.669434,-0.155151,-0.481323,0.544189
1541872407920609,-0.668579,-0.157593,-0.484009,0.542175
1541872407937623,-0.667969,-0.159363,-0.486511,0.540161
1541872407959623,-0.667419,-0.160522,-0.488647,0.538574
1541872407980659,-0.666687,-0.161743,-0.490356,0.537598
1541872407997673,-0.665955,-0.162842,-0.491699,0.536926
1541872408019672,-0.665222,-0.163696,-0.49292,0.536377
1541872408040709,-0.664551,-0.164246,-0.494141,0.53595
1541872408064719,-0.664001,-0.164429,-0.495178,0.535645
1541872408079730,-0.663269,-0.164795,-0.496155,0.535461
1541872408100758,-0.662415,-0.165466,-0.497437,0.535217
1541872408124762,-0.66156,-0.166321,-0.499084,0.534485
1541872408139770,-0.660706,-0.166931,-0.500854,0.533691
1541872408160842,-0.659851,-0.167358,-0.502502,0.53302
1541872408177821,-0.659424,-0.167358,-0.503418,0.532715
1541872408199835,-0.659485,-0.166626,-0.50354,0.532715
1541872408222859,-0.660522,-0.164612,-0.502686,0.532898
1541872408236869,-0.662354,-0.161438,-0.500793,0.533325
1541872408259872,-0.664734,-0.157166,-0.497986,0.534302
1541872408282903,-0.667358,-0.151917,-0.494568,0.535767
1541872408296919,-0.669983,-0.145874,-0.490601,0.537781
1541872408319920,-0.672668,-0.139404,-0.486328,0.540039
1541872408342951,-0.675354,-0.132507,-0.481628,0.542603
1541872408363984,-0.678101,-0.124756,-0.476379,0.545593
1541872408379970,-0.680664,-0.116089,-0.470642,0.549377
1541872408401986,-0.682922,-0.106995,-0.46405,0.553894
1541872408424015,-0.68512,-0.0974731,-0.45697,0.558838
1541872408440038,-0.687683,-0.0872192,-0.449219,0.563721
1541872408462091,-0.690125,-0.0761719,-0.441223,0.568604
1541872408483110,-0.692444,-0.0646362,-0.4328,0.573608
1541872408500080,-0.69458,-0.0529175,-0.424194,0.578674
1541872408522105,-0.696289,-0.0415039,-0.415466,0.583862
1541872408543122,-0.697632,-0.0306396,-0.406372,0.589294
1541872408560136,-0.698792,-0.0200195,-0.397156,0.594604
1541872408582145,-0.699707,-0.00946045,-0.387512,0.600159
1541872408603172,-0.700378,0.000854492,-0.377686,0.605713
1541872408620186,-0.700806,0.0110474,-0.367493,0.611389
1541872408642201,-0.700989,0.0211792,-0.356873,0.617126
1541872408663221,-0.700989,0.0308228,-0.346008,0.622864
1541872408680235,-0.700317,0.0403442,-0.335022,0.629028
1541872408702248,-0.699707,0.0500488,-0.323853,0.634888
1541872408723272,-0.699219,0.0601196,-0.312195,0.640381
1541872408740285,-0.698914,0.0706177,-0.300049,0.645386
1541872408762287,-0.698242,0.0813599,-0.288025,0.65033
1541872408783318,-0.697144,0.09198,-0.275513,0.655457
1541872408800369,-0.696289,0.102905,-0.26239,0.660095
1541872408822343,-0.695618,0.114014,-0.249146,0.664124
1541872408843370,-0.694519,0.124939,-0.235718,0.668152
1541872408859382,-0.693176,0.135803,-0.222412,0.672058
1541872408882389,-0.691467,0.14624,-0.209229,0.675781
1541872408903420,-0.689941,0.156311,-0.196045,0.679077
1541872408920433,-0.688782,0.166077,-0.1828,0.68158
1541872408942443,-0.687256,0.175659,-0.169678,0.684143
1541872408963468,-0.685181,0.184753,-0.156738,0.68689
1541872408979482,-0.683167,0.193542,-0.144043,0.68927
1541872409002501,-0.680786,0.201965,-0.131531,0.69165
1541872409023518,-0.678528,0.210144,-0.11908,0.693726
1541872409039512,-0.676331,0.217834,-0.106628,0.695496
1541872409062532,-0.674072,0.224976,-0.0948486,0.697144
1541872409083548,-0.671692,0.231628,-0.0835571,0.698669
1541872409099562,-0.669495,0.238098,-0.0723267,0.69989
1541872409122582,-0.667297,0.244202,-0.0614624,0.700928
1541872409143597,-0.665222,0.249939,-0.0506592,0.701721
1541872409159611,-0.66333,0.255554,-0.039978,0.702209
1541872409182646,-0.661438,0.260925,-0.0297852,0.702515
1541872409204648,-0.659546,0.266174,-0.0197144,0.702637
1541872409219661,-0.657837,0.271545,-0.00915527,0.702454
1541872409242679,-0.655701,0.276917,0.000671387,0.702393
1541872409264699,-0.653137,0.281738,0.00994873,0.70282
1541872409279710,-0.650635,0.286438,0.019043,0.703003
1541872409302729,-0.648376,0.291382,0.0280762,0.702759
1541872409324748,-0.645874,0.296204,0.0363159,0.702698
1541872409345774,-0.643066,0.30072,0.0438232,0.702942
1541872409362778,-0.640381,0.304932,0.0505981,0.703125
1541872409384800,-0.638123,0.308899,0.057251,0.702942
1541872409405833,-0.636353,0.312561,0.0637207,0.702332
1541872409422847,-0.634521,0.316162,0.0696411,0.701843
1541872409444845,-0.632446,0.319641,0.0751953,0.701538
1541872409465883,-0.630432,0.322937,0.0809326,0.701233
1541872409482897,-0.628418,0.326294,0.086792,0.700745
1541872409504895,-0.626404,0.329529,0.0929565,0.700256
1541872409525923,-0.624512,0.332703,0.0986938,0.699646
1541872409542927,-0.622559,0.335754,0.104126,0.699158
1541872409564945,-0.620728,0.338501,0.109314,0.698669
1541872409585967,-0.618896,0.341125,0.114624,0.698181
1541872409602977,-0.61731,0.343567,0.119446,0.697571
1541872409624994,-0.615662,0.345947,0.124146,0.697021
1541872409646025,-0.614258,0.348083,0.128601,0.696411
1541872409663040,-0.612793,0.350037,0.132996,0.695862
1541872409685043,-0.611389,0.351868,0.137451,0.695313
1541872409706061,-0.610291,0.353455,0.141663,0.69458
1541872409729082,-0.609436,0.354858,0.14563,0.693848
1541872409745095,-0.608398,0.356018,0.149475,0.693298
1541872409766133,-0.607849,0.357178,0.15332,0.692383
1541872409782126,-0.607178,0.358093,0.157166,0.69165
1541872409805144,-0.606506,0.359131,0.160706,0.690857
1541872409826180,-0.605957,0.360168,0.164429,0.689941
1541872409842188,-0.605103,0.361328,0.168457,0.689087
1541872409865207,-0.604309,0.362488,0.172668,0.688171
1541872409886229,-0.603333,0.363525,0.176453,0.6875
1541872409902222,-0.602356,0.36438,0.180176,0.686951
1541872409925254,-0.601318,0.36499,0.184204,0.686462
1541872409946278,-0.600586,0.365234,0.188171,0.685913
1541872409962291,-0.599976,0.365173,0.191711,0.685486
1541872409985292,-0.599304,0.364929,0.19519,0.685242
1541872410006327,-0.598938,0.364502,0.198425,0.684814
1541872410022341,-0.599121,0.363708,0.201172,0.684265
1541872410045359,-0.599548,0.363037,0.203125,0.683716
1541872410066413,-0.599792,0.362427,0.204651,0.68335
1541872410082373,-0.600098,0.361877,0.206421,0.682861
1541872410105410,-0.600708,0.361328,0.208191,0.682068
1541872410126462,-0.601135,0.36084,0.209961,0.681458
1541872410142432,-0.601379,0.360596,0.211731,0.680786
1541872410165459,-0.601624,0.360535,0.213684,0.679993
1541872410187457,-0.601501,0.360779,0.216003,0.679199
1541872410202469,-0.601196,0.361328,0.218506,0.678406
1541872410225543,-0.600708,0.362061,0.22113,0.677551
1541872410247507,-0.600159,0.362976,0.223816,0.676697
1541872410262519,-0.599365,0.363953,0.226501,0.675964
1541872410285558,-0.598572,0.364929,0.228882,0.675354
1541872410307567,-0.597961,0.365784,0.23114,0.674683
1541872410321623,-0.59729,0.366394,0.233337,0.674194
1541872410345607,-0.596741,0.36676,0.235535,0.673706
1541872410367606,-0.596375,0.366943,0.237366,0.673279
1541872410381655,-0.59613,0.366943,0.238953,0.672913
1541872410412654,-0.595764,0.367004,0.240662,0.672668
1541872410427657,-0.595581,0.366882,0.242004,0.672302
1541872410441679,-0.595459,0.366943,0.242737,0.67218
1541872410464726,-0.595764,0.366638,0.243286,0.671875
1541872410487725,-0.596069,0.366333,0.243591,0.671631
1541872410501733,-0.596375,0.36615,0.243958,0.671326
1541872410524755,-0.596619,0.366089,0.244263,0.671082
1541872410547774,-0.596741,0.36615,0.244507,0.670837
1541872410561783,-0.596802,0.366272,0.244995,0.670532
1541872410584805,-0.596863,0.366455,0.245667,0.670166
1541872410607823,-0.596802,0.366699,0.246277,0.6698
1541872410628842,-0.59668,0.367004,0.247009,0.669495
1541872410644835,-0.596558,0.367188,0.247742,0.669189
1541872410667856,-0.596191,0.367798,0.248352,0.668945
1541872410688890,-0.596008,0.368164,0.249023,0.668762
1541872410704885,-0.595886,0.368286,0.249634,0.668518
1541872410727922,-0.595642,0.36853,0.250183,0.668396
1541872410748939,-0.595398,0.368774,0.250549,0.668335
1541872410764939,-0.595276,0.369019,0.250732,0.668274
1541872410787990,-0.595276,0.369019,0.250732,0.668274
1541872410808990,-0.595276,0.36908,0.250732,0.668213
1541872410824993,-0.595276,0.36908,0.250732,0.668213
1541872410831007,-0.595276,0.36908,0.250732,0.668213
1541872410853025,-0.595642,0.369019,0.250549,0.66803
1541872410876028,-0.595581,0.369019,0.25061,0.66803
1541872410891057,-0.595764,0.368958,0.250854,0.667786
1541872410913075,-0.595825,0.369019,0.251221,0.667603
1541872410936089,-0.595825,0.369019,0.251587,0.667419
1541872410951094,-0.595947,0.36908,0.252014,0.667175
1541872410973108,-0.595886,0.369141,0.252563,0.666931
1541872410991138,-0.595947,0.369141,0.252991,0.666687
1541872411010155,-0.59613,0.369019,0.253357,0.666443
1541872411033174,-0.596191,0.369019,0.253601,0.666382
1541872411051189,-0.596069,0.369263,0.253479,0.666382
1541872411070204,-0.596069,0.369568,0.253052,0.666321
1541872411093223,-0.595886,0.369812,0.252625,0.666504
1541872411111239,-0.59613,0.369873,0.252136,0.666504
1541872411130254,-0.596375,0.36969,0.251648,0.666565
1541872411153273,-0.59668,0.369507,0.251221,0.666565
1541872411171283,-0.596985,0.369324,0.250793,0.666504
1541872411190303,-0.597168,0.369324,0.250549,0.666504
1541872411213319,-0.597168,0.369324,0.25061,0.666443
1541872411231353,-0.597107,0.369385,0.25061,0.666443
1541872411250388,-0.596924,0.369568,0.250305,0.666626
1541872411273372,-0.596863,0.36969,0.249695,0.666809
1541872411291386,-0.596802,0.369751,0.24884,0.667236
1541872411310403,-0.596924,0.369629,0.247498,0.667664
1541872411333421,-0.597107,0.369202,0.245483,0.668457
1541872411351436,-0.597351,0.368713,0.242615,0.669556
1541872411370451,-0.597473,0.368103,0.238586,0.671204
1541872411393471,-0.597717,0.367371,0.233093,0.67334
1541872411415489,-0.598206,0.366272,0.225952,0.675903
1541872411430501,-0.599121,0.364502,0.217285,0.678955
1541872411453521,-0.600159,0.362061,0.207275,0.682434
1541872411475534,-0.601807,0.358521,0.195679,0.686279
1541872411490534,-0.603577,0.354248,0.18335,0.690369
1541872411513607,-0.606323,0.349121,0.17041,0.693848
1541872411531565,-0.609375,0.343384,0.156982,0.697144
1541872411550600,-0.612976,0.337463,0.143005,0.699951
1541872411573615,-0.61731,0.330994,0.128235,0.702026
1541872411590634,-0.622314,0.323669,0.112915,0.703735
1541872411610650,-0.627258,0.315613,0.0985718,0.705139
1541872411633649,-0.632324,0.307983,0.0844727,0.705811
1541872411650685,-0.636963,0.300537,0.0708618,0.70636
1541872411670700,-0.641296,0.292725,0.0583496,0.706848
1541872411692717,-0.646179,0.285095,0.0470581,0.706299
1541872411710733,-0.651062,0.278137,0.0357056,0.705322
1541872411731750,-0.654541,0.271729,0.0240479,0.705078
1541872411752767,-0.656738,0.265137,0.0130615,0.705872
1541872411770775,-0.659241,0.258606,0.00292969,0.705994
1541872411791834,-0.662781,0.252197,-0.00665283,0.705017
1541872411812816,-0.666321,0.245667,-0.0162354,0.703796
1541872411830811,-0.668945,0.239075,-0.026001,0.703308
1541872411851829,-0.671326,0.232788,-0.0357666,0.702759
1541872411872849,-0.67395,0.226929,-0.045166,0.701599
1541872411890877,-0.676575,0.221008,-0.0541992,0.700317
1541872411911879,-0.678833,0.21521,-0.0628662,0.699219
1541872411932915,-0.680969,0.209473,-0.0718384,0.698059
1541872411950914,-0.683167,0.203491,-0.0809326,0.696655
1541872411971929,-0.685303,0.197083,-0.0899658,0.695251
1541872411992965,-0.687317,0.190674,-0.098999,0.693848
1541872412010969,-0.688904,0.184692,-0.108093,0.692566
1541872412033999,-0.689819,0.178589,-0.117188,0.691711
1541872412053014,-0.690979,0.172241,-0.125854,0.690674
1541872412071009,-0.692688,0.165955,-0.134277,0.688965
1541872412094043,-0.694519,0.15979,-0.142639,0.68689
1541872412113100,-0.695923,0.153687,-0.151611,0.684937
1541872412131074,-0.696533,0.146973,-0.161316,0.683533
1541872412154093,-0.697388,0.13916,-0.170837,0.682007
1541872412173148,-0.699341,0.131104,-0.180176,0.679138
1541872412191109,-0.701294,0.123779,-0.189697,0.675903
1541872412214162,-0.702087,0.116638,-0.199402,0.673584
1541872412233164,-0.70282,0.109314,-0.20874,0.671265
1541872412250157,-0.704102,0.101746,-0.217529,0.668274
1541872412273196,-0.705627,0.0942993,-0.226196,0.664856
1541872412294249,-0.706726,0.0870361,-0.234741,0.661743
1541872412310206,-0.70697,0.079834,-0.243164,0.659363
1541872412333245,-0.70697,0.0720825,-0.251648,0.657043
1541872412354263,-0.707336,0.0638428,-0.259766,0.654297
1541872412370257,-0.707947,0.0554199,-0.267883,0.651123
1541872412393325,-0.708374,0.0472412,-0.276123,0.647888
1541872412414313,-0.708557,0.0391846,-0.28418,0.644775
1541872412430306,-0.708374,0.0310059,-0.29187,0.641907
1541872412453378,-0.708496,0.0228882,-0.299316,0.638733
1541872412474355,-0.708618,0.0146484,-0.30658,0.635376
1541872412490366,-0.70874,0.0065918,-0.313782,0.631775
1541872412513403,-0.708374,-0.0012207,-0.321167,0.62854
1541872412534403,-0.707703,-0.00909424,-0.328613,0.625366
1541872412550423,-0.707214,-0.0174561,-0.336121,0.621765
1541872412573440,-0.70697,-0.026001,-0.343384,0.617737
1541872412594451,-0.706543,-0.0342407,-0.350952,0.613525
1541872412610469,-0.705444,-0.0422974,-0.358459,0.609985
1541872412632492,-0.704041,-0.0502319,-0.365967,0.606506
1541872412653509,-0.703369,-0.0580444,-0.373474,0.602051
1541872412670523,-0.702454,-0.0657959,-0.38092,0.597656
1541872412692542,-0.700989,-0.0739136,-0.388489,0.593567
1541872412713558,-0.699219,-0.0820313,-0.395935,0.5896
1541872412730569,-0.69751,-0.0897827,-0.40332,0.58551
1541872412752581,-0.695557,-0.0973511,-0.410278,0.581726
1541872412773608,-0.693787,-0.104614,-0.416748,0.577942
1541872412789601,-0.692017,-0.111267,-0.423096,0.57428
1541872412812624,-0.690186,-0.117798,-0.429199,0.570679
1541872412833657,-0.688171,-0.124207,-0.435242,0.567078
1541872412849666,-0.686096,-0.130676,-0.441223,0.563538
1541872412872671,-0.68396,-0.137268,-0.447388,0.559631
1541872412893690,-0.681824,-0.14386,-0.453674,0.555542
1541872412909700,-0.679688,-0.150269,-0.459961,0.55127
1541872412932729,-0.677673,-0.156311,-0.466064,0.546936
1541872412953756,-0.676025,-0.161926,-0.471558,0.542603
1541872412969761,-0.674438,-0.167053,-0.476746,0.538513
1541872412992768,-0.673401,-0.171753,-0.481018,0.534485
1541872413015844,-0.672546,-0.175598,-0.484741,0.530945
1541872413029799,-0.67218,-0.178467,-0.487732,0.52771
1541872413052833,-0.672119,-0.180481,-0.490112,0.524902
1541872413075857,-0.672119,-0.181763,-0.491821,0.522827
1541872413089848,-0.672058,-0.182983,-0.49292,0.521423
1541872413112868,-0.67218,-0.183838,-0.493591,0.520386
1541872413135906,-0.672424,-0.18396,-0.494141,0.51947
1541872413156923,-0.672791,-0.183472,-0.494446,0.518982
1541872413172926,-0.672668,-0.18335,-0.494446,0.519104
1541872413195952,-0.672668,-0.182678,-0.49408,0.519653
1541872413209963,-0.673157,-0.181213,-0.493164,0.520447
1541872413232968,-0.674255,-0.178406,-0.49115,0.521851
1541872413255986,-0.675659,-0.174438,-0.488403,0.523987
1541872413277013,-0.677368,-0.169556,-0.484863,0.526672
1541872413293018,-0.67981,-0.163391,-0.480469,0.52948
1541872413316051,-0.682251,-0.156616,-0.475647,0.532715
1541872413336071,-0.684387,-0.149048,-0.470276,0.536926
1541872413353085,-0.687073,-0.140442,-0.463928,0.541321
1541872413375101,-0.68988,-0.130859,-0.456848,0.546143
1541872413396121,-0.692871,-0.120544,-0.448975,0.55127
1541872413413135,-0.695801,-0.109619,-0.440491,0.556641
1541872413435151,-0.697693,-0.0987549,-0.432007,0.562927
1541872413456170,-0.699341,-0.0871582,-0.423584,0.569214
1541872413473167,-0.701599,-0.0749512,-0.414368,0.57489
1541872413495200,-0.703918,-0.0627441,-0.404358,0.580627
1541872413516222,-0.705383,-0.0504761,-0.39447,0.586731
1541872413533253,-0.706482,-0.0374146,-0.384521,0.593018
1541872413555234,-0.708557,-0.0230713,-0.373535,0.598267
1541872413576266,-0.710693,-0.00805664,-0.362122,0.603149
1541872413593283,-0.711914,0.00671387,-0.349731,0.609009
1541872413616302,-0.71283,0.0205688,-0.336609,0.614929
1541872413636356,-0.713501,0.034729,-0.322571,0.621033
1541872413653333,-0.714111,0.0484619,-0.308472,0.626587
1541872413675339,-0.714417,0.0618286,-0.293762,0.63208
1541872413696367,-0.713501,0.0740356,-0.279724,0.638123
1541872413712363,-0.712524,0.085144,-0.266052,0.643677
1541872413735381,-0.712402,0.0968018,-0.25238,0.647644
1541872413756417,-0.712646,0.108765,-0.239014,0.650574
1541872413772432,-0.712463,0.120667,-0.225708,0.653381
1541872413795431,-0.711792,0.132202,-0.211914,0.656494
1541872413816503,-0.710938,0.143738,-0.197876,0.659363
1541872413832462,-0.709534,0.154785,-0.183777,0.662476
1541872413857494,-0.707764,0.165222,-0.170227,0.665405
1541872413876516,-0.706543,0.175293,-0.157532,0.667236
1541872413892530,-0.705688,0.184875,-0.144592,0.668518
1541872413915530,-0.704956,0.193909,-0.132141,0.669312
1541872413937567,-0.70343,0.202759,-0.120728,0.670471
1541872413952579,-0.702393,0.211182,-0.108704,0.670959
1541872413975587,-0.701721,0.219604,-0.0969849,0.670837
1541872413997617,-0.700195,0.2276,-0.0855103,0.671265
1541872414012629,-0.698669,0.234924,-0.074646,0.671631
1541872414035648,-0.69751,0.242126,-0.0641479,0.671387
1541872414057707,-0.696045,0.249207,-0.053772,0.671204
1541872414078683,-0.694336,0.256348,-0.0438232,0.671021
1541872414095697,-0.692749,0.263428,-0.0332642,0.670532
1541872414117754,-0.690613,0.270142,-0.0229492,0.670471
1541872414138732,-0.688293,0.276611,-0.0130005,0.670471
1541872414155727,-0.685974,0.282349,-0.0032959,0.670593
1541872414177762,-0.683777,0.287537,0.00579834,0.670593
1541872414198818,-0.681641,0.292358,0.0146484,0.670593
1541872414215797,-0.679504,0.296631,0.0228271,0.670654
1541872414237795,-0.677185,0.300415,0.0305176,0.670959
1541872414258867,-0.674988,0.303833,0.0379028,0.671265
1541872414275846,-0.672913,0.307068,0.045105,0.671448
1541872414297861,-0.670776,0.310059,0.0518188,0.671753
1541872414318882,-0.668701,0.313049,0.0584106,0.671875
1541872414335896,-0.666504,0.316162,0.0648804,0.671997
1541872414357903,-0.664185,0.319092,0.0714722,0.672241
1541872414378931,-0.662048,0.322021,0.0782471,0.67218
1541872414395944,-0.659668,0.324768,0.085083,0.672363
1541872414417944,-0.657288,0.327698,0.0917969,0.672424
1541872414438980,-0.654785,0.330505,0.0981445,0.672607
1541872414455995,-0.652405,0.333191,0.104553,0.672607
1541872414477993,-0.650452,0.335632,0.110718,0.672302
1541872414507071,-0.648499,0.338074,0.116882,0.671936
1541872414515044,-0.646484,0.340332,0.122559,0.671692
1541872414538043,-0.644348,0.342468,0.128235,0.67157
1541872414559079,-0.642273,0.344238,0.133789,0.67157
1541872414576129,-0.640503,0.345642,0.139282,0.671448
1541872414598092,-0.638916,0.34668,0.144775,0.671326
1541872414619129,-0.637512,0.347412,0.150146,0.671021
1541872414636134,-0.63623,0.3479,0.15509,0.670898
1541872414658177,-0.634827,0.348328,0.15979,0.670898
1541872414679215,-0.633667,0.348572,0.164612,0.670715
1541872414695174,-0.63269,0.348694,0.1698,0.670227
1541872414718211,-0.63208,0.348633,0.17511,0.669495
1541872414739263,-0.631348,0.348511,0.179993,0.668945
1541872414755242,-0.630371,0.348633,0.184326,0.66864
1541872414778240,-0.629517,0.348694,0.18866,0.668213
1541872414799312,-0.62915,0.348633,0.192993,0.667297
1541872414815290,-0.628662,0.348816,0.19696,0.666565
1541872414838304,-0.627869,0.349365,0.200317,0.665955
1541872414860318,-0.627014,0.350159,0.203613,0.665405
1541872414875340,-0.626404,0.350952,0.206909,0.664551
1541872414898359,-0.625549,0.35199,0.210144,0.663757
1541872414920374,-0.62439,0.353333,0.213135,0.663147
1541872414935425,-0.623108,0.35498,0.216125,0.662537
1541872414958409,-0.621826,0.356812,0.219299,0.661682
1541872414980423,-0.620422,0.358765,0.222412,0.66095
1541872415001443,-0.619019,0.360718,0.225464,0.660217
1541872415018457,-0.617676,0.362427,0.228516,0.659424
1541872415040456,-0.616211,0.364075,0.231628,0.658813
1541872415061493,-0.614746,0.36554,0.234314,0.658386
1541872415078507,-0.613342,0.367004,0.236511,0.658142
1541872415100505,-0.612122,0.368103,0.238281,0.657959
1541872415121543,-0.611206,0.368896,0.239807,0.657837
1541872415138592,-0.610229,0.369751,0.241211,0.657776
1541872415160554,-0.60907,0.37085,0.242676,0.657715
1541872415174586,-0.608215,0.371582,0.243835,0.657654
1541872415198605,-0.607422,0.372131,0.244995,0.657593
1541872415220612,-0.606812,0.372559,0.24646,0.657471
1541872415225627,-0.606201,0.372925,0.247803,0.657288
1541872415242643,-0.605774,0.373474,0.249084,0.65686
1541872415263659,-0.605164,0.37439,0.249756,0.656616
1541872415285678,-0.604492,0.375671,0.250488,0.656311
1541872415302692,-0.603516,0.377136,0.251099,0.656067
1541872415323709,-0.602234,0.378723,0.251709,0.656128
1541872415345765,-0.601135,0.380066,0.252319,0.656128
1541872415362724,-0.600159,0.381165,0.253174,0.656067
1541872415383760,-0.599182,0.38208,0.253967,0.656128
1541872415405778,-0.598083,0.382935,0.255066,0.656189
1541872415422790,-0.597229,0.383484,0.256592,0.656006
1541872415443808,-0.596313,0.384033,0.257935,0.656006
1541872415465827,-0.59552,0.384399,0.259399,0.655945
1541872415482840,-0.594604,0.384827,0.260864,0.655945
1541872415503857,-0.593567,0.385254,0.262329,0.656006
1541872415525910,-0.592834,0.385559,0.263733,0.656006
1541872415542889,-0.591919,0.385803,0.265198,0.656067
1541872415563907,-0.591309,0.385559,0.266541,0.656189
1541872415585925,-0.590759,0.385315,0.2677,0.656372
1541872415602975,-0.590393,0.384949,0.268616,0.656494
1541872415623993,-0.590088,0.384583,0.269531,0.656677
1541872415646010,-0.589905,0.384216,0.270508,0.656677
1541872415662989,-0.589417,0.38385,0.271729,0.656799
1541872415684005,-0.588745,0.383728,0.272949,0.656921
1541872415706024,-0.588135,0.383789,0.274231,0.656982
1541872415723019,-0.587402,0.383789,0.275635,0.656982
1541872415744050,-0.586914,0.383606,0.276917,0.656982
1541872415766109,-0.586304,0.383545,0.278198,0.657043
1541872415783091,-0.585632,0.383484,0.279663,0.657043
1541872415804105,-0.584961,0.383301,0.28125,0.657104
1541872415826123,-0.584045,0.383423,0.282898,0.657104
1541872415844137,-0.583191,0.383301,0.284485,0.657288
1541872415863154,-0.582397,0.38324,0.285889,0.65741
1541872415886173,-0.581604,0.383179,0.287048,0.657593
1541872415904168,-0.580811,0.382996,0.288086,0.657959
1541872415924203,-0.580017,0.38269,0.288635,0.658569
1541872415946222,-0.579407,0.382324,0.289124,0.659119
1541872415964238,-0.578979,0.381653,0.28949,0.65979
1541872415983252,-0.578369,0.381226,0.289795,0.6604
1541872416006271,-0.57782,0.380859,0.290405,0.660828
1541872416024280,-0.577209,0.380676,0.291138,0.661133
1541872416043341,-0.576477,0.380493,0.292053,0.661438
1541872416066320,-0.575806,0.380249,0.293274,0.661621
1541872416084331,-0.575073,0.380066,0.294434,0.661865
1541872416103351,-0.57428,0.379944,0.295593,0.662109
1541872416126406,-0.573486,0.379883,0.296753,0.662354
1541872416144382,-0.572998,0.379578,0.297791,0.662476
1541872416163384,-0.572388,0.379395,0.298767,0.662659
1541872416186455,-0.571777,0.37915,0.299622,0.662964
1541872416204434,-0.57135,0.378845,0.300293,0.663208
1541872416223450,-0.570984,0.378418,0.300903,0.663452
1541872416246450,-0.570618,0.377991,0.301575,0.663696
1541872416264485,-0.570251,0.377502,0.302246,0.664001
1541872416283500,-0.569763,0.376953,0.302917,0.664429
1541872416306520,-0.569336,0.376343,0.303467,0.664917
1541872416324533,-0.56897,0.375793,0.303711,0.665405
1541872416343545,-0.568848,0.375183,0.303772,0.665833
1541872416361559,-0.569092,0.37439,0.303162,0.666321
1541872416384579,-0.569397,0.373718,0.302185,0.66687
1541872416405599,-0.570007,0.373047,0.300964,0.667297
1541872416421594,-0.570679,0.372498,0.299438,0.667725
1541872416444623,-0.571533,0.37207,0.297607,0.66803
1541872416465647,-0.572327,0.371887,0.296021,0.668213
1541872416481645,-0.572998,0.371765,0.294312,0.668396
1541872416503680,-0.573669,0.371948,0.292664,0.668457
1541872416525680,-0.574585,0.37207,0.290649,0.668518
1541872416541712,-0.5755,0.372131,0.288269,0.668701
1541872416563774,-0.576782,0.371765,0.285278,0.669128
1541872416585750,-0.577881,0.371338,0.281616,0.669922
1541872416605766,-0.578918,0.370667,0.277405,0.671143
1541872416623764,-0.5802,0.369629,0.272278,0.672729
1541872416644830,-0.581665,0.367981,0.266357,0.674744
1541872416666817,-0.583435,0.365601,0.25946,0.677185
1541872416683816,-0.585205,0.363098,0.252258,0.679688
1541872416704828,-0.58728,0.360107,0.244385,0.682373
1541872416726864,-0.589294,0.356934,0.235779,0.685303
1541872416743873,-0.591125,0.353943,0.227234,0.688232
1541872416765888,-0.593445,0.35022,0.218506,0.690918
1541872416779890,-0.595703,0.34668,0.209961,0.69342
1541872416802927,-0.5979,0.343201,0.200928,0.695984
1541872416825947,-0.600464,0.339294,0.191162,0.698364
1541872416839948,-0.603333,0.335083,0.180969,0.700684
1541872416862973,-0.606506,0.330566,0.170166,0.702759
1541872416885997,-0.609802,0.325439,0.159058,0.704895
1541872416907050,-0.613037,0.319824,0.147583,0.707153
1541872416923044,-0.616089,0.314331,0.13562,0.709351
1541872416946045,-0.619324,0.308411,0.123352,0.711365
1541872416967062,-0.62262,0.302551,0.111145,0.713074
1541872416983057,-0.626343,0.296387,0.0993042,0.714111
1541872417006112,-0.630859,0.289429,0.0875244,0.714539
1541872417027113,-0.635559,0.281738,0.0753174,0.714844
1541872417043107,-0.639954,0.273438,0.062439,0.715393
1541872417066144,-0.644287,0.264465,0.048584,0.715942
1541872417087162,-0.647949,0.255188,0.0342407,0.716858
1541872417103166,-0.651367,0.245544,0.0201416,0.71759
1541872417133186,-0.655029,0.235901,0.00628662,0.717834
1541872417147212,-0.658203,0.226685,-0.00756836,0.717834
1541872417163205,-0.661072,0.218079,-0.0211182,0.71759
1541872417186240,-0.663818,0.210022,-0.0336304,0.71698
1541872417207298,-0.666809,0.201904,-0.0454712,0.715942
1541872417223260,-0.669373,0.193726,-0.0574341,0.714905
1541872417246294,-0.671509,0.185486,-0.0700073,0.713989
1541872417267303,-0.673218,0.177429,-0.083252,0.712952
1541872417283305,-0.674683,0.169373,-0.0957031,0.712036
1541872417306343,-0.676147,0.161011,-0.107849,0.710815
1541872417327360,-0.677734,0.153259,-0.119568,0.709167
1541872417343354,-0.679443,0.145691,-0.131287,0.707031
1541872417366388,-0.681091,0.138184,-0.142517,0.704773
1541872417387424,-0.6828,0.130859,-0.152893,0.702393
1541872417403413,-0.683899,0.123413,-0.163391,0.700256
1541872417426433,-0.684814,0.115601,-0.173645,0.698242
1541872417447450,-0.686096,0.107361,-0.183655,0.69574
1541872417463467,-0.687561,0.0987549,-0.193909,0.692749
1541872417485490,-0.688599,0.0895996,-0.203796,0.690125
1541872417507505,-0.68927,0.0803223,-0.213623,0.687622
1541872417522517,-0.690186,0.0712891,-0.2229,0.684753
1541872417545582,-0.690552,0.062439,-0.231873,0.682251
1541872417566557,-0.690735,0.0535278,-0.240479,0.679871
1541872417582554,-0.69104,0.0444336,-0.248901,0.677185
1541872417605580,-0.69104,0.03479,-0.257996,0.674316
1541872417626607,-0.690857,0.0239868,-0.267883,0.671143
1541872417642610,-0.691406,0.012085,-0.277832,0.66687
1541872417665628,-0.691956,0.000488281,-0.288696,0.661682
1541872417686647,-0.692017,-0.0106812,-0.299744,0.656677
1541872417702649,-0.691772,-0.0216675,-0.310303,0.651672
1541872417725679,-0.691956,-0.0321045,-0.32019,0.64624
1541872417748708,-0.691956,-0.0418701,-0.329468,0.640991
1541872417762715,-0.691345,-0.0512085,-0.337769,0.636658
1541872417785720,-0.690674,-0.0596313,-0.345398,0.632568
1541872417808757,-0.690308,-0.0670166,-0.351929,0.628601
1541872417822759,-0.689575,-0.0739136,-0.358032,0.625183
1541872417845770,-0.688538,-0.0801392,-0.36377,0.622253
1541872417868808,-0.687378,-0.0861206,-0.369324,0.619507
1541872417889823,-0.68634,-0.0917358,-0.374634,0.616638
1541872417905816,-0.685486,-0.0970459,-0.3797,0.613647
1541872417928856,-0.684326,-0.101868,-0.384399,0.611206
1541872417949873,-0.682983,-0.106445,-0.388977,0.60907
1541872417965879,-0.68158,-0.110291,-0.393372,0.607117
1541872417988905,-0.680115,-0.114075,-0.397522,0.605347
1541872418009922,-0.679016,-0.11792,-0.401184,0.603455
1541872418025927,-0.677795,-0.121277,-0.404724,0.601746
1541872418048951,-0.676636,-0.124146,-0.408142,0.600159
1541872418069972,-0.675415,-0.12677,-0.411316,0.598816
1541872418085969,-0.674011,-0.129517,-0.41449,0.597595
1541872418108998,-0.672241,-0.132568,-0.417908,0.596558
1541872418130033,-0.670349,-0.135803,-0.421509,0.595459
1541872418146016,-0.668335,-0.139282,-0.425476,0.594055
1541872418168053,-0.666016,-0.143066,-0.429688,0.592773
1541872418190062,-0.663391,-0.147583,-0.434143,0.59137
1541872418207078,-0.660828,-0.152344,-0.438721,0.5896
1541872418228102,-0.658325,-0.157104,-0.443481,0.587585
1541872418249119,-0.655884,-0.161743,-0.44812,0.585571
1541872418266134,-0.65332,-0.16626,-0.452515,0.583801
1541872418288149,-0.650635,-0.170776,-0.456726,0.582153
1541872418309204,-0.648132,-0.175171,-0.460754,0.580444
1541872418326166,-0.645813,-0.178833,-0.464661,0.578857
1541872418348192,-0.644348,-0.182434,-0.467957,0.57666
1541872418369219,-0.643188,-0.185303,-0.471252,0.574402
1541872418386249,-0.642029,-0.1875,-0.474243,0.57251
1541872418408231,-0.640625,-0.189636,-0.476807,0.571289
1541872418429268,-0.63916,-0.19165,-0.47876,0.570557
1541872418445263,-0.637512,-0.193909,-0.480347,0.570374
1541872418468290,-0.635559,-0.196533,-0.481567,0.570618
1541872418489353,-0.633545,-0.199036,-0.482788,0.570923
1541872418505312,-0.631836,-0.201172,-0.484192,0.570923
1541872418528340,-0.629761,-0.203491,-0.485657,0.571106
1541872418549350,-0.627441,-0.205994,-0.487183,0.571472
1541872418565361,-0.625,-0.208679,-0.488892,0.571716
1541872418588390,-0.622742,-0.211182,-0.49054,0.571838
1541872418611418,-0.620422,-0.213623,-0.49231,0.571899
1541872418625430,-0.618042,-0.216187,-0.494141,0.57196
1541872418648431,-0.615479,-0.219055,-0.495789,0.572205
1541872418671468,-0.612976,-0.222107,-0.497375,0.572388
1541872418685479,-0.610657,-0.224854,-0.498962,0.572388
1541872418708489,-0.608765,-0.22699,-0.50061,0.572205
1541872418731551,-0.607056,-0.228882,-0.502075,0.571838
1541872418752534,-0.605896,-0.230408,-0.50354,0.571228
1541872418768529,-0.605286,-0.231323,-0.504761,0.570435
1541872418791600,-0.604675,-0.231995,-0.505737,0.569885
1541872418805573,-0.604492,-0.232422,-0.50647,0.569336
1541872418828587,-0.604614,-0.232178,-0.506958,0.568848
1541872418851597,-0.605164,-0.231873,-0.50708,0.568237
1541872418865610,-0.606934,-0.230774,-0.506714,0.5672
1541872418888646,-0.610962,-0.228882,-0.505127,0.565002
1541872418910707,-0.616699,-0.22406,-0.502197,0.563354
1541872418931683,-0.622742,-0.218811,-0.497437,0.562988
1541872418948695,-0.629089,-0.211914,-0.491577,0.56366
1541872418970749,-0.635986,-0.203735,-0.484436,0.565125
1541872418991731,-0.642761,-0.194885,-0.476257,0.567566
1541872419008745,-0.648682,-0.185669,-0.467041,0.571533
1541872419030745,-0.653687,-0.175842,-0.457214,0.576843
1541872419051817,-0.658142,-0.165466,-0.447144,0.582703
1541872419068795,-0.66272,-0.154724,-0.436829,0.588318
1541872419090794,-0.666992,-0.143799,-0.426636,0.593689
1541872419111830,-0.670837,-0.13324,-0.416321,0.599121
1541872419128847,-0.674011,-0.12262,-0.406067,0.604858
1541872419150861,-0.676819,-0.111633,-0.395813,0.610596
1541872419171915,-0.679871,-0.10022,-0.38562,0.615662
1541872419188894,-0.682678,-0.0890503,-0.375244,0.620667
1541872419210903,-0.684265,-0.0789185,-0.364624,0.626587
1541872419231929,-0.685608,-0.0690308,-0.353821,0.632507
1541872419248980,-0.687195,-0.0587769,-0.34314,0.637634
1541872419270941,-0.688354,-0.0488281,-0.332397,0.642883
1541872419291978,-0.688965,-0.0393677,-0.321716,0.648254
1541872419308992,-0.689026,-0.0302124,-0.311035,0.653931
1541872419330991,-0.689636,-0.0211792,-0.300232,0.65863
1541872419352064,-0.690552,-0.0118408,-0.28949,0.66272
1541872419368037,-0.691467,-0.00231934,-0.278687,0.666504
1541872419391041,-0.692261,0.00726318,-0.267822,0.670044
1541872419412077,-0.692871,0.0168457,-0.257141,0.673462
1541872419428091,-0.693359,0.0264282,-0.246399,0.676636
1541872419451099,-0.693848,0.0361328,-0.235657,0.679504
1541872419472127,-0.694397,0.0460815,-0.224792,0.682007
1541872419488121,-0.69458,0.0561523,-0.214111,0.68457
1541872419511140,-0.694458,0.0661621,-0.203308,0.687012
1541872419532176,-0.694153,0.0761108,-0.192566,0.689392
1541872419548189,-0.693726,0.0860596,-0.181946,0.691528
1541872419571204,-0.692993,0.0960693,-0.171509,0.693665
1541872419593210,-0.692078,0.10614,-0.161194,0.695557
1541872419608256,-0.690918,0.116089,-0.150879,0.697388
1541872419615242,-0.689636,0.125671,-0.140686,0.699158
1541872419636263,-0.688293,0.135254,-0.130371,0.700684
1541872419659278,-0.686951,0.144714,-0.120056,0.701965
1541872419675279,-0.685242,0.153992,-0.110352,0.703247
1541872419696348,-0.683228,0.162598,-0.100891,0.704712
1541872419719314,-0.681091,0.170654,-0.0919189,0.706055
1541872419735327,-0.67981,0.178589,-0.0827026,0.706482
1541872419756398,-0.678894,0.186462,-0.0736084,0.70636
1541872419779363,-0.677307,0.194153,-0.0651245,0.706604
1541872419795373,-0.675293,0.201233,-0.0568848,0.707275
1541872419816410,-0.67334,0.208069,-0.0489502,0.707764
1541872419839429,-0.671692,0.214722,-0.0412598,0.707825
1541872419857428,-0.670227,0.220886,-0.0335083,0.707764
1541872419876459,-0.668945,0.226929,-0.0261841,0.707336
1541872419906485,-0.66748,0.232788,-0.0192871,0.707031
1541872419917488,-0.665649,0.238342,-0.0126953,0.707092
1541872419936509,-0.664063,0.24353,-0.00628662,0.706848
1541872419959527,-0.662842,0.248352,-0.000183105,0.70636
1541872419975523,-0.66156,0.252991,0.00592041,0.705933
1541872419996596,-0.660278,0.257568,0.012207,0.705322
1541872420019575,-0.658997,0.262085,0.0184326,0.704773
1541872420035590,-0.657288,0.266479,0.0244141,0.704529
1541872420056608,-0.655273,0.27063,0.0302124,0.70459
1541872420078626,-0.653503,0.274536,0.0358887,0.704468
1541872420093640,-0.6521,0.278259,0.041687,0.703979
1541872420116658,-0.650574,0.28186,0.0471191,0.703613
1541872420138676,-0.648804,0.285522,0.0521851,0.70343
1541872420153688,-0.646851,0.289001,0.0571899,0.703369
1541872420176707,-0.645203,0.292114,0.0620117,0.703247
1541872420198725,-0.643738,0.294861,0.0667114,0.703003
1541872420215757,-0.642395,0.297424,0.071106,0.702698
1541872420236757,-0.641235,0.299744,0.0751343,0.702332
1541872420258775,-0.639954,0.302063,0.0789795,0.702087
1541872420275807,-0.638611,0.304321,0.0828247,0.701904
1541872420296807,-0.637512,0.306519,0.086853,0.701477
1541872420318825,-0.636475,0.308655,0.0911865,0.700928
1541872420335839,-0.635498,0.310608,0.0951538,0.700378
1541872420356857,-0.634399,0.312439,0.0987549,0.700073
1541872420378870,-0.633362,0.313965,0.102356,0.699829
1541872420395908,-0.632507,0.315308,0.105896,0.699463
1541872420416946,-0.631531,0.316711,0.109192,0.699219
1541872420438924,-0.630554,0.317871,0.112122,0.699158
1541872420455937,-0.6297,0.318909,0.114746,0.698975
1541872420476955,-0.629456,0.319458,0.117371,0.698547
1541872420498973,-0.629333,0.319885,0.119995,0.697998
1541872420516979,-0.629395,0.320374,0.122375,0.697327
1541872420537004,-0.629211,0.320923,0.124756,0.696777
1541872420555019,-0.628906,0.321594,0.127258,0.696289
1541872420577019,-0.628601,0.322327,0.1297,0.69574
1541872420597054,-0.628235,0.322937,0.132446,0.695313
1541872420615049,-0.627869,0.323669,0.135376,0.694763
1541872420637068,-0.627441,0.324402,0.138184,0.694214
1541872420657099,-0.626892,0.324951,0.140869,0.693909
1541872420681104,-0.626465,0.3255,0.14325,0.693604
1541872420697136,-0.626099,0.325928,0.145813,0.693115
1541872420717136,-0.625977,0.326355,0.148315,0.692505
1541872420734167,-0.625732,0.326904,0.150574,0.692017
1541872420757186,-0.625366,0.327454,0.152771,0.691589
1541872420776202,-0.625061,0.328003,0.154907,0.691162
1541872420794251,-0.624634,0.328613,0.157166,0.690735
1541872420817238,-0.62439,0.329163,0.159485,0.690186
1541872420836251,-0.624023,0.329712,0.161377,0.689819
1541872420854259,-0.623779,0.330078,0.162903,0.689514
1541872420877284,-0.623474,0.330444,0.164368,0.68927
1541872420896301,-0.623474,0.330383,0.165894,0.688904
1541872420914296,-0.623474,0.330383,0.167358,0.688538
1541872420936334,-0.623352,0.330627,0.168823,0.688171
1541872420957351,-0.623169,0.331116,0.170105,0.687805
1541872420974346,-0.623169,0.331543,0.171448,0.687256
1541872420997365,-0.62323,0.331848,0.172974,0.686707
1541872421016437,-0.623169,0.332092,0.174561,0.686157
1541872421033396,-0.62323,0.332275,0.176025,0.685669
1541872421056429,-0.623169,0.33252,0.17749,0.685242
1541872421077450,-0.623169,0.332703,0.17926,0.684692
1541872421093473,-0.623047,0.332886,0.181213,0.684204
1541872421116482,-0.622803,0.333069,0.183228,0.683777
1541872421137499,-0.622498,0.333374,0.185059,0.683472
1541872421153493,-0.62207,0.333923,0.186584,0.683167
1541872421176549,-0.621643,0.334534,0.187683,0.682922
1541872421197549,-0.621094,0.335205,0.188293,0.682922
1541872421213542,-0.620483,0.335876,0.18811,0.683167
1541872421236616,-0.620178,0.336487,0.1875,0.68335
1541872421257598,-0.620056,0.336914,0.186584,0.683472
1541872421273593,-0.620178,0.33728,0.185547,0.683472
1541872421296629,-0.6203,0.337463,0.184814,0.683472
1541872421317684,-0.620361,0.337524,0.184814,0.683411
1541872421333651,-0.620422,0.337585,0.185303,0.683167
1541872421356680,-0.620483,0.337708,0.18634,0.682739
1541872421377697,-0.620667,0.337769,0.187805,0.682251
1541872421393690,-0.620544,0.33783,0.189636,0.681763
1541872421416764,-0.6203,0.33783,0.191406,0.681458
1541872421437746,-0.620117,0.33783,0.193298,0.681152
1541872421453741,-0.620056,0.337891,0.19519,0.680603
1541872421476780,-0.619934,0.338074,0.196838,0.680115
1541872421498777,-0.619629,0.33844,0.198486,0.679749
1541872421513790,-0.619324,0.338928,0.199951,0.679321
1541872421536828,-0.619202,0.339233,0.201172,0.678955
1541872421558833,-0.619202,0.339539,0.202209,0.678528
1541872421573839,-0.619202,0.339661,0.203247,0.678101
1541872421596875,-0.619141,0.339905,0.204224,0.677795
1541872421618897,-0.61908,0.340088,0.205261,0.677429
1541872421632930,-0.619019,0.340271,0.20636,0.677063
1541872421656919,-0.618958,0.340454,0.207825,0.676575
1541872421678946,-0.619019,0.340698,0.209229,0.675964
1541872421692938,-0.618896,0.340942,0.210693,0.675476
1541872421715975,-0.618774,0.341187,0.212341,0.674988
1541872421738995,-0.618713,0.341248,0.213806,0.674561
1541872421753003,-0.61853,0.34137,0.21521,0.674255
1541872421777010,-0.618286,0.341553,0.216492,0.673889
1541872421799027,-0.618164,0.341797,0.217529,0.673584
1541872421813050,-0.618103,0.34198,0.218445,0.673218
1541872421836084,-0.618042,0.342102,0.219299,0.672974
1541872421859093,-0.617859,0.342346,0.219971,0.672791
1541872421873095,-0.617737,0.342773,0.220581,0.672485
1541872421896108,-0.617554,0.34314,0.221069,0.672302
1541872421926131,-0.617676,0.34314,0.221252,0.672119
1541872421933135,-0.61792,0.342834,0.221497,0.671997
1541872421956155,-0.618286,0.342285,0.221985,0.671753
1541872421979193,-0.618652,0.341675,0.222534,0.67157
1541872422000210,-0.618835,0.341248,0.22345,0.671265
1541872422016213,-0.619019,0.341003,0.224609,0.670898
1541872422039242,-0.61908,0.340759,0.226196,0.67041
1541872422060260,-0.618958,0.340576,0.228027,0.669983
1541872422076253,-0.618774,0.340393,0.22998,0.669556
1541872422099292,-0.61853,0.34021,0.23175,0.669312
1541872422120309,-0.618286,0.340088,0.233582,0.668945
1541872422136302,-0.618103,0.339966,0.235168,0.66864
1541872422159341,-0.617981,0.339661,0.236511,0.668396
1541872422180358,-0.617798,0.339294,0.237671,0.668335
1541872422196367,-0.617615,0.339294,0.238281,0.668274
1541872422219382,-0.617615,0.339478,0.238647,0.668091
1541872422240391,-0.617493,0.339661,0.238831,0.66803
1541872422256402,-0.617493,0.339661,0.238831,0.66803
1541872422279455,-0.617737,0.339539,0.238953,0.667847
1541872422300459,-0.61792,0.339539,0.23938,0.667542
1541872422316470,-0.617981,0.339539,0.240295,0.667114
1541872422339497,-0.617798,0.339722,0.241638,0.666687
1541872422360504,-0.617676,0.339844,0.243591,0.666077
1541872422376518,-0.617065,0.340149,0.246033,0.665527
1541872422398581,-0.616455,0.340637,0.248352,0.665039
1541872422419591,-0.615662,0.341309,0.250183,0.664673
1541872422436550,-0.615295,0.341614,0.251526,0.664368
1541872422458582,-0.615051,0.34198,0.252808,0.66394
1541872422481607,-0.614746,0.342346,0.253967,0.663574
1541872422496619,-0.614502,0.342896,0.254944,0.663147
1541872422518632,-0.614136,0.343506,0.255737,0.662842
1541872422541648,-0.613953,0.344055,0.256531,0.662476
1541872422556651,-0.613708,0.344482,0.257446,0.662109
1541872422578668,-0.613586,0.344604,0.258301,0.661865
1541872422601705,-0.613464,0.344666,0.259216,0.66156
1541872422615698,-0.61322,0.344727,0.260315,0.661316
1541872422638727,-0.612915,0.344849,0.261475,0.661011
1541872422661755,-0.612915,0.344849,0.262695,0.660583
1541872422675748,-0.612854,0.344666,0.264343,0.660034
1541872422698782,-0.612793,0.344421,0.266235,0.659485
1541872422721804,-0.612549,0.34436,0.268188,0.658936
1541872422735797,-0.612305,0.344482,0.269958,0.658386
1541872422758825,-0.611633,0.344971,0.27179,0.65802
1541872422781849,-0.610779,0.345703,0.273499,0.657715
1541872422795848,-0.610107,0.346313,0.27478,0.657471
1541872422818870,-0.60968,0.346741,0.275391,0.65741
1541872422841899,-0.609497,0.346924,0.275696,0.657349
1541872422855911,-0.609497,0.346924,0.275696,0.657349
1541872422878914,-0.609741,0.346497,0.275513,0.65741
1541872422901954,-0.610168,0.345947,0.275574,0.657288
1541872422915967,-0.610535,0.345459,0.275635,0.657166
1541872422938964,-0.61084,0.345154,0.275818,0.656982
1541872422962003,-0.61084,0.345032,0.276245,0.65686
1541872422983020,-0.610779,0.34491,0.276672,0.656799
1541872422999015,-0.610718,0.344727,0.277039,0.656799
1541872423022087,-0.610657,0.344666,0.277283,0.65686
1541872423042105,-0.610657,0.344666,0.277283,0.656799
1541872423059078,-0.610657,0.344666,0.277283,0.656799
1541872423082093,-0.610718,0.344543,0.277039,0.656921
1541872423103100,-0.610718,0.344482,0.276855,0.656982
1541872423119132,-0.610718,0.344482,0.276855,0.656982
1541872423142147,-0.610474,0.344604,0.276917,0.657166
1541872423163165,-0.610046,0.344788,0.276917,0.657471
1541872423179182,-0.609741,0.344788,0.276611,0.657898
1541872423201191,-0.609619,0.344482,0.275452,0.65863
1541872423222213,-0.610901,0.34259,0.272217,0.659729
1541872423238215,-0.613037,0.339844,0.267029,0.661316
1541872423261240,-0.615784,0.336609,0.260925,0.662842
1541872423282266,-0.618835,0.333313,0.253906,0.664429
1541872423305285,-0.622314,0.329773,0.245667,0.666016
1541872423321289,-0.627319,0.324646,0.235352,0.667542
1541872423342315,-0.632385,0.318665,0.2229,0.669922
1541872423358325,-0.635498,0.31311,0.209229,0.674011
1541872423381339,-0.635254,0.308655,0.193054,0.68103
1541872423404368,-0.632813,0.304565,0.175842,0.689819
1541872423418366,-0.631775,0.299011,0.159973,0.697021
1541872423441377,-0.633545,0.291626,0.146667,0.701416
1541872423464418,-0.637268,0.283264,0.135132,0.703796
1541872423478420,-0.641785,0.274963,0.122437,0.705322
1541872423501427,-0.645264,0.266724,0.10791,0.707703
1541872423524468,-0.647705,0.25769,0.0925293,0.710999
1541872423545486,-0.649719,0.248352,0.0788574,0.714111
1541872423561476,-0.653259,0.238586,0.0665894,0.715454
1541872423590519,-0.657776,0.228821,0.0534058,0.715576
1541872423605533,-0.660767,0.219421,0.0384521,0.716797
1541872423621538,-0.662476,0.2099,0.0236816,0.718628
1541872423644560,-0.6651,0.199768,0.0112305,0.719482
1541872423665576,-0.669128,0.190369,-0.000427246,0.718384
1541872423681577,-0.672852,0.182129,-0.0123901,0.716858
1541872423704625,-0.674377,0.174683,-0.0255737,0.71698
1541872423725643,-0.674377,0.166199,-0.0387573,0.718384
1541872423741642,-0.675537,0.156067,-0.0504761,0.718872
1541872423763663,-0.67804,0.146118,-0.0619507,0.717712
1541872423785662,-0.680664,0.137268,-0.0742188,0.71582
1541872423801675,-0.681396,0.128845,-0.0877075,0.715149
1541872423823748,-0.680603,0.118958,-0.100647,0.715881
1541872423844730,-0.681396,0.107849,-0.112183,0.715149
1541872423861744,-0.684204,0.0977173,-0.123291,0.712097
1541872423884779,-0.686523,0.0883179,-0.135498,0.708862
1541872423904778,-0.68634,0.0792236,-0.148254,0.707581
1541872423921794,-0.685364,0.0690308,-0.15979,0.707092
1541872423943808,-0.685364,0.0579834,-0.170471,0.705627
1541872423964863,-0.685974,0.0473022,-0.181824,0.702942
1541872423981860,-0.685547,0.0369263,-0.193726,0.700806
1541872424003842,-0.684082,0.0262451,-0.205505,0.699402
1541872424009866,-0.682861,0.0150757,-0.216309,0.697632
1541872424031884,-0.682678,0.00421143,-0.226624,0.694702
1541872424046896,-0.682678,-0.00518799,-0.236938,0.691223
1541872424069899,-0.681519,-0.0139771,-0.247498,0.688538
1541872424091934,-0.679749,-0.0228882,-0.257385,0.686401
1541872424106946,-0.678711,-0.0318604,-0.266235,0.683716
1541872424129964,-0.678406,-0.0402222,-0.274597,0.680237
1541872424151982,-0.677795,-0.0477295,-0.282776,0.677063
1541872424166998,-0.67627,-0.0549927,-0.290833,0.674622
1541872424190005,-0.674622,-0.0622559,-0.298706,0.67218
1541872424212032,-0.673523,-0.069458,-0.306213,0.669189
1541872424227036,-0.673218,-0.0759277,-0.313416,0.665466
1541872424249063,-0.672729,-0.0814819,-0.320557,0.661804
1541872424272081,-0.671631,-0.0869141,-0.327759,0.658752
1541872424287085,-0.670166,-0.0925293,-0.334595,0.656067
1541872424309112,-0.668945,-0.0988159,-0.341003,0.653015
1541872424332131,-0.668518,-0.104736,-0.347107,0.649353
1541872424347144,-0.667847,-0.109924,-0.353394,0.645752
1541872424369162,-0.666443,-0.114868,-0.359436,0.643005
1541872424392180,-0.664734,-0.119995,-0.365234,0.640564
1541872424407176,-0.663269,-0.125061,-0.371094,0.637756
1541872424429246,-0.662048,-0.129517,-0.376831,0.634766
1541872424452230,-0.660522,-0.133728,-0.382629,0.63208
1541872424467238,-0.65863,-0.137878,-0.388184,0.6297
1541872424489262,-0.656738,-0.142273,-0.393677,0.627258
1541872424512280,-0.654907,-0.146484,-0.399353,0.624634
1541872424527292,-0.653076,-0.150574,-0.404846,0.62207
1541872424549312,-0.651428,-0.154602,-0.4104,0.619202
1541872424567315,-0.649963,-0.158081,-0.416138,0.615967
1541872424588331,-0.64856,-0.161438,-0.421875,0.612671
1541872424609359,-0.647156,-0.164734,-0.42749,0.609375
1541872424627356,-0.645752,-0.16803,-0.433105,0.605957
1541872424647392,-0.644653,-0.170898,-0.438721,0.602356
1541872424669411,-0.643982,-0.173401,-0.444275,0.598267
1541872424687415,-0.643066,-0.175842,-0.450195,0.594116
1541872424707476,-0.643066,-0.177734,-0.455872,0.589172
1541872424729459,-0.642517,-0.179565,-0.461914,0.584473
