timestamp,roll,pitch,yaw
1541874448774648,-0.845594,-0.438362,1.68554
1541874448775650,-0.846844,-0.461152,1.67288
1541874448776650,-0.846081,-0.494242,1.65558
1541874448796666,-0.832458,-0.566302,1.60945
1541874448835696,-0.832514,-0.603716,1.58537
1541874448838698,-0.830739,-0.645007,1.56092
1541874448856713,-0.816399,-0.693062,1.53326
1541874448877766,-0.788826,-0.746142,1.50026
1541874448894763,-0.75531,-0.803338,1.46153
1541874448961813,-0.719148,-0.86364,1.41469
1541874448961813,-0.673724,-0.924845,1.3568
1541874449014853,-0.608577,-0.983483,1.28471
1541874449216050,-0.521152,-1.0382,1.19999
1541874449456238,-0.423665,-1.08588,1.10363
1541874449458240,-0.327284,-1.12268,0.998617
1541874449479222,-0.256876,-1.13789,0.858157
1541874449481222,-0.84002,-0.916473,1.93238
1541874449517271,-0.877143,-0.87506,2.01643
1541874449524293,-0.909581,-0.831573,2.09651
1541874449526258,-0.93452,-0.786809,2.1719
1541874449548272,-0.950479,-0.742273,2.24355
1541874449560323,-0.958139,-0.697955,2.31043
1541874449583304,-0.959499,-0.654601,2.37183
1541874449597295,-0.957635,-0.612826,2.42872
1541874449620315,-0.955421,-0.574699,2.48175
1541874449643385,-0.953401,-0.540261,2.52923
1541874449697388,-0.950143,-0.509645,2.56898
1541874449718444,-0.945512,-0.486231,2.60168
1541874449721429,-0.93693,-0.480582,2.62694
1541874449765428,-0.926277,-0.486125,2.64563
1541874449771451,-0.911034,-0.500829,2.65672
1541874449773447,-0.87583,-0.551151,2.66019
1541874449791501,-0.864883,-0.591974,2.65692
1541874449813484,-0.852187,-0.643531,2.6466
1541874449828495,-0.832066,-0.691178,2.62785
1541874449851494,-0.815319,-0.741292,2.60446
1541874449873567,-0.805363,-0.79477,2.578
1541874449888578,-0.791943,-0.850736,2.54651
1541874449911544,-0.768436,-0.907367,2.50803
1541874449936562,-0.735223,-0.963382,2.46019
1541874449948586,-0.694932,-1.01773,2.39976
1541874449971642,-0.646177,-1.06877,2.32402
1541874449993625,-0.586284,-1.11557,2.2307
1541874450008637,-0.512603,-1.15663,2.11663
1541874450031636,-0.424527,-1.19043,1.98156
1541874450062714,-0.323976,-1.21507,1.829
1541874450071667,-0.216225,-1.23065,1.66748
1541874450107695,-0.107,-1.23759,1.50509
1541874450122718,-0.00112437,-1.23858,1.34971
1541874450167746,0.0980076,-1.23432,1.20769
1541874450191778,0.186727,-1.22813,1.08837
1541874450200789,0.240981,-1.22275,1.01418
1541874450253825,0.293365,-1.22228,0.946517
1541874450275847,0.279953,-1.22727,0.955124
1541874450326877,0.1971,-1.24648,1.03926
1541874450348939,0.117035,-1.26119,1.12024
1541874450350941,-0.0793668,-1.27636,1.32193
1541874450365914,-0.195544,-1.27371,1.44972
1541874450400945,-0.328339,-1.26482,1.60168
1541874450402927,-0.468319,-1.24757,1.76768
1541874450413955,-0.601046,-1.22165,1.93227
1541874450428963,-0.711217,-1.18904,2.07804
1541874450450980,-0.793305,-1.15164,2.1987
1541874450473985,-0.852564,-1.10886,2.29719
1541874450492051,-0.901605,-1.06384,2.37872
1541874450514015,-0.943259,-1.01686,2.44795
1541874450529037,-0.968433,-0.966262,2.50626
1541874450549097,-0.980745,-0.914879,2.55525
1541874450571075,-0.98676,-0.863942,2.59741
1541874450589074,-0.987002,-0.814421,2.63352
1541874450609091,-0.980566,-0.767029,2.66538
1541874450631125,-0.966567,-0.722636,2.69183
1541874450649140,-0.949196,-0.681469,2.71285
1541874450670137,-0.934354,-0.64379,2.7291
1541874450694156,-0.922396,-0.617463,2.73927
1541874450717190,-0.91217,-0.595222,2.74381
1541874450730185,-0.903414,-0.581026,2.74243
1541874450751221,-0.898202,-0.576306,2.73292
1541874450769235,-0.898835,-0.580009,2.71674
1541874450791246,-0.906039,-0.595631,2.69812
1541874450811269,-0.915998,-0.628055,2.67903
1541874450829281,-0.910571,-0.665468,2.65335
1541874450850298,-0.89172,-0.707466,2.62306
1541874450871311,-0.871652,-0.749072,2.59092
1541874450889328,-0.859009,-0.791396,2.55908
1541874450910344,-0.849306,-0.834426,2.52645
1541874450934365,-0.833596,-0.875813,2.48957
1541874450949375,-0.813726,-0.915055,2.44867
1541874450970392,-0.79861,-0.953259,2.40477
1541874450991444,-0.78998,-0.990811,2.35772
1541874451009420,-0.782068,-1.02728,2.30591
1541874451031421,-0.771185,-1.06268,2.24995
1541874451058461,-0.759992,-1.09799,2.19252
1541874451069470,-0.745562,-1.13394,2.13286
1541874451091470,-0.726064,-1.17092,2.07058
1541874451114500,-0.698798,-1.20816,2.00437
1541874451136505,-0.663637,-1.24485,1.93124
1541874451159522,-0.618764,-1.28043,1.85138
1541874451188544,-0.564654,-1.31357,1.76448
1541874451190546,-0.500322,-1.34368,1.67174
1541874451234596,-0.450058,-1.36309,1.59781
1541874451248610,-0.403706,-1.38031,1.53477
1541874451251609,-0.353898,-1.39621,1.47446
1541874451272650,-0.307971,-1.40927,1.41584
1541874451291639,-0.271767,-1.41957,1.36064
1541874451315646,-0.256005,-1.42674,1.31967
1541874451338672,-0.278398,-1.43051,1.31367
1541874451377705,-0.335076,-1.43245,1.34542
1541874451391724,-0.397968,-1.43169,1.39357
1541874451393705,-0.456774,-1.42527,1.44651
1541874451422745,-0.522698,-1.41459,1.51118
1541874451443768,-0.602214,-1.39736,1.59122
1541874451466782,-0.674676,-1.37419,1.66868
1541874451488834,-0.725069,-1.34525,1.73036
1541874451491798,-0.771541,-1.30466,1.78757
1541874451524862,-0.807425,-1.25665,1.82937
1541874451531833,-0.833406,-1.20121,1.85445
1541874451555838,-0.861849,-1.14119,1.87302
1541874451578882,-0.893804,-1.07792,1.88754
1541874451600869,-0.922419,-1.01403,1.89979
1541874451639899,-0.941221,-0.951746,1.90836
1541874451681952,-0.950552,-0.892803,1.91481
1541874451692950,-0.951953,-0.83848,1.91775
1541874451735993,-0.94908,-0.78959,1.9188
1541874451745989,-0.935204,-0.721603,1.91495
1541874451752000,-0.912319,-0.685291,1.89533
1541874451788035,-0.905483,-0.679924,1.88206
1541874451791018,-0.897802,-0.683992,1.86686
1541874451812050,-0.888221,-0.697225,1.84906
1541874451834052,-0.877344,-0.717769,1.82762
1541874451863085,-0.864679,-0.744705,1.79991
1541874451878086,-0.849812,-0.77665,1.76458
1541874451899158,-0.836345,-0.804788,1.72354
1541874451916116,-0.821663,-0.83522,1.6782
1541874451970172,-0.800216,-0.865734,1.62686
1541874451982182,-0.772044,-0.895249,1.56896
1541874452066254,-0.708794,-0.954227,1.43339
1541874452089306,-0.641617,-1.01221,1.27074
1541874452104263,-0.558895,-1.06257,1.09001
1541874452150299,-0.45612,-1.1074,0.901851
1541874452172353,-0.397272,-1.12702,0.803482
1541874452173321,-0.334968,-1.14444,0.701855
1541874452405501,-0.270959,-1.1599,0.597971
1541874452426536,-0.204393,-1.17298,0.491458
1541874452442548,0.434032,-1.2478,-0.27169
1541874452448540,0.398453,-1.25262,-0.237782
1541874452463564,0.350605,-1.25587,-0.191022
1541874452472572,0.299582,-1.25804,-0.13783
1541874452493586,0.249647,-1.25907,-0.0803446
1541874452515598,0.204705,-1.25934,-0.0222712
1541874452546630,0.170317,-1.25876,0.0313652
1541874452599652,0.144457,-1.25585,0.0817254
1541874452628732,0.11704,-1.25048,0.132734
1541874452653696,0.0410978,-1.2316,0.244427
1541874452675732,-0.0110493,-1.21725,0.309391
1541874452696732,-0.147326,-1.18241,0.470133
1541874452698730,-0.215999,-1.16188,0.552741
1541874452750791,-0.272177,-1.13652,0.625316
1541874452772805,-0.322707,-1.11244,0.691674
1541874452773789,-0.368794,-1.08757,0.752216
1541874452846877,-0.412183,-1.06344,0.807885
1541874452862862,-0.446941,-1.04242,0.856778
1541874452885896,-0.510139,-0.995379,0.970954
1541874452958989,-0.522844,-0.985862,1.00375
1541874452961960,-0.533303,-0.979557,1.03566
1541874452982953,-0.543002,-0.976212,1.06861
1541874452986977,-0.562082,-0.981222,1.17173
1541874453010030,-0.568982,-0.984675,1.20636
1541874453017000,-0.578239,-0.986713,1.23906
1541874453033011,-0.590603,-0.987371,1.26976
1541874453062016,-0.60442,-0.987027,1.29715
1541874453077047,-0.619219,-0.984832,1.3215
1541874453094044,-0.635094,-0.980844,1.34408
1541874453116059,-0.652293,-0.975006,1.36762
1541874453139089,-0.667273,-0.968464,1.39173
1541874453161110,-0.679249,-0.961621,1.41526
1541874453183132,-0.689508,-0.95483,1.43881
1541874453214155,-0.699683,-0.94814,1.46263
1541874453216150,-0.711525,-0.941782,1.48711
1541874453236168,-0.72511,-0.93581,1.51377
1541874453266188,-0.738947,-0.928392,1.54238
1541874453273182,-0.750231,-0.919051,1.57134
1541874453296220,-0.7584,-0.908938,1.59978
1541874453317249,-0.766013,-0.898368,1.62701
1541874453341272,-0.774544,-0.887991,1.65236
1541874453363268,-0.784483,-0.877481,1.67687
1541874453384289,-0.796201,-0.867793,1.70161
1541874453393286,-0.808368,-0.857633,1.72679
1541874453439331,-0.818851,-0.847216,1.75127
1541874453441313,-0.828537,-0.835338,1.7756
1541874453461330,-0.838357,-0.821976,1.79957
1541874453476356,-0.850473,-0.806769,1.82399
1541874453497376,-0.864648,-0.789913,1.84941
1541874453519390,-0.878083,-0.771032,1.87583
1541874453544412,-0.889117,-0.751534,1.90314
1541874453564429,-0.899371,-0.73162,1.9315
1541874453573418,-0.909784,-0.710437,1.96173
1541874453596435,-0.919732,-0.687916,1.9933
1541874453618453,-0.927454,-0.663494,2.02442
1541874453640470,-0.933642,-0.638606,2.05431
1541874453656484,-0.940144,-0.614047,2.08314
1541874453693531,-0.947863,-0.589671,2.11058
1541874453695525,-0.955169,-0.56643,2.13544
1541874453716530,-0.962833,-0.544134,2.15698
1541874453737557,-0.972326,-0.524223,2.17636
1541874453752559,-0.985187,-0.502519,2.19629
1541874453775596,-0.995937,-0.478997,2.21696
1541874453798613,-1.00061,-0.454667,2.23657
1541874453812608,-1.00233,-0.429939,2.25592
1541874453835642,-1.0069,-0.404358,2.27595
1541874453858661,-1.01206,-0.379066,2.29582
1541874453872663,-1.01529,-0.350642,2.31689
1541874453895670,-1.01732,-0.320659,2.33848
1541874453918689,-1.0185,-0.28866,2.35972
1541874453932702,-1.02036,-0.256153,2.38222
1541874453955738,-1.02239,-0.221886,2.40575
1541874453978757,-1.02266,-0.188672,2.42946
1541874453999752,-1.02118,-0.155628,2.45186
1541874454015765,-1.02054,-0.122903,2.47306
1541874454038783,-1.02086,-0.0909722,2.49375
1541874454059799,-1.01988,-0.0597453,2.51353
1541874454083857,-1.01704,-0.0297117,2.53355
1541874454098850,-1.01291,-0.00456432,2.55537
1541874454119902,-1.00914,0.0106583,2.5722
1541874454135859,-1.01089,0.0230422,2.58501
1541874454158933,-1.00652,0.0348502,2.59268
1541874454179948,-1.00766,0.0536207,2.59674
1541874454195906,-1.00486,0.0745536,2.60182
1541874454218944,-0.999988,0.0928021,2.61343
1541874454239960,-0.985059,0.10562,2.63022
1541874454255008,-0.969668,0.115992,2.65023
1541874454261974,-0.959943,0.123704,2.67293
1541874454283998,-0.951981,0.127288,2.70045
1541874454306013,-0.942869,0.126038,2.7318
1541874454332028,-0.935709,0.121913,2.76517
1541874454345058,-0.92915,0.115271,2.79976
1541874454366041,-0.920196,0.103344,2.83464
1541874454381054,-0.911608,0.0895313,2.86849
1541874454404089,-0.908688,0.0747545,2.90028
1541874454426106,-0.910615,0.0593009,2.93148
1541874454441102,-0.910472,0.0439957,2.96234
1541874454464172,-0.907253,0.0302815,2.99363
1541874454486154,-0.903359,0.0183475,3.02518
1541874454501165,-0.901597,0.00562663,3.0568
1541874454524219,-0.903147,-0.0103188,3.08703
1541874454546206,-0.905585,-0.0289919,3.11633
1541874454561197,-0.904664,-0.0499967,-3.13834
1541874454584230,-0.900187,-0.0727821,-3.11089
1541874454602281,-0.890945,-0.095281,-3.08538
1541874454621260,-0.882165,-0.117099,-3.0626
1541874454644278,-0.882189,-0.140256,-3.04176
1541874454662273,-0.88588,-0.163746,-3.02248
1541874454681308,-0.881326,-0.187685,-3.00534
1541874454711311,-0.864735,-0.209199,-2.99143
1541874454722374,-0.849537,-0.231453,-2.98103
1541874454741337,-0.845323,-0.254108,-2.97359
1541874454764372,-0.849507,-0.272855,-2.96507
1541874454782382,-0.841083,-0.2875,-2.95624
1541874454809409,-0.819261,-0.297091,-2.95008
1541874454824420,-0.808476,-0.301956,-2.94529
1541874454842423,-0.804843,-0.30174,-2.94381
1541874454869449,-0.801532,-0.298492,-2.94422
1541874454892473,-0.796332,-0.295177,-2.94559
1541874454909486,-0.791188,-0.293481,-2.94661
1541874454921496,-0.787894,-0.29301,-2.94614
1541874454946515,-0.78465,-0.292385,-2.94497
1541874454961527,-0.781528,-0.290668,-2.94308
1541874454981534,-0.778055,-0.287553,-2.94201
1541874455011562,-0.774828,-0.284277,-2.94224
1541874455021566,-0.772495,-0.279391,-2.94496
1541874455041589,-0.76929,-0.274774,-2.94996
1541874455063590,-0.764139,-0.270709,-2.95788
1541874455081602,-0.756462,-0.266439,-2.96821
1541874455104657,-0.747022,-0.262114,-2.98185
1541874455123655,-0.738065,-0.256669,-2.99733
1541874455146673,-0.730395,-0.251126,-3.01213
1541874455161687,-0.721563,-0.244663,-3.02708
1541874455183703,-0.713987,-0.236613,-3.04186
1541874455209724,-0.709346,-0.226884,-3.05726
1541874455221769,-0.707676,-0.214213,-3.07319
1541874455243784,-0.709858,-0.196922,-3.0871
1541874455261745,-0.714245,-0.180902,-3.09996
1541874455281779,-0.720531,-0.162934,-3.11294
1541874455303779,-0.727211,-0.144895,-3.12657
1541874455321790,-0.734314,-0.127816,-3.14112
1541874455341825,-0.73738,-0.110238,3.12839
1541874455363843,-0.738375,-0.0949219,3.11387
1541874455381849,-0.747779,-0.0825442,3.09839
1541874455402855,-0.766826,-0.0684197,3.08331
1541874455431877,-0.785274,-0.051762,3.06771
1541874455441886,-0.799294,-0.0336615,3.05253
1541874455462917,-0.814645,-0.0167805,3.03831
1541874455483938,-0.830192,-0.000412591,3.02406
1541874455506956,-0.840982,0.0128811,3.00966
1541874455522956,-0.847364,0.0237556,2.99445
1541874455543980,-0.848215,0.0321459,2.978
1541874455561981,-0.848973,0.0390296,2.95966
1541874455582997,-0.85555,0.0419355,2.93934
1541874455604032,-0.86456,0.0412046,2.91747
1541874455622046,-0.871412,0.0363709,2.8951
1541874455643062,-0.876179,0.0282258,2.87155
1541874455665080,-0.880333,0.0163103,2.84472
1541874455686077,-0.889534,-0.000931122,2.81592
1541874455704107,-0.899154,-0.021732,2.78642
1541874455725126,-0.904216,-0.0445555,2.75597
1541874455741120,-0.908316,-0.0704336,2.72707
1541874455771146,-0.914941,-0.100708,2.70085
1541874455785155,-0.926151,-0.138355,2.67616
1541874455801168,-0.938872,-0.184021,2.65287
1541874455824198,-0.94991,-0.236618,2.63098
1541874455845218,-0.959841,-0.295238,2.61026
1541874455861223,-0.971161,-0.357823,2.59201
1541874455891257,-0.984166,-0.42151,2.57762
1541874455905266,-0.996712,-0.483308,2.56694
1541874455928281,-1.00187,-0.540108,2.5627
1541874455943279,-0.999297,-0.591739,2.55758
1541874455964316,-0.998146,-0.638919,2.55227
1541874455981328,-1.00275,-0.684564,2.54617
1541874456003336,-1.01521,-0.731293,2.53726
1541874456024362,-1.03852,-0.780961,2.52402
1541874456041358,-1.07068,-0.832773,2.50408
1541874456064393,-1.09866,-0.882968,2.47734
1541874456092418,-1.11739,-0.932263,2.44578
1541874456108409,-1.1284,-0.979679,2.41131
1541874456131429,-1.13301,-1.02506,2.37462
1541874456206505,-1.13724,-1.06781,2.33866
1541874456209507,-1.1409,-1.10811,2.30287
1541874456237510,-1.13927,-1.14464,2.26399
1541874456239532,-1.11576,-1.20248,2.16839
1541874456245517,-1.09725,-1.22316,2.11303
1541874456264551,-1.07812,-1.2432,2.05527
1541874456281564,-1.05957,-1.25366,1.99899
1541874456311589,-1.03493,-1.26061,1.93917
1541874456332604,-1.00578,-1.26223,1.87354
1541874456341613,-0.977916,-1.25853,1.80739
1541874456371635,-0.953342,-1.25092,1.74495
1541874456447712,-0.932146,-1.239,1.68862
1541874456498730,-0.914927,-1.22538,1.63993
1541874456552777,-0.880476,-1.18005,1.5255
1541874456641828,-0.86839,-1.15069,1.46546
1541874456655838,-0.870372,-1.11635,1.39089
1541874456686863,-0.840345,-1.08965,1.26952
1541874456688865,-0.819172,-1.09201,1.23943
1541874456717888,-0.799969,-1.0946,1.21089
1541874456729911,-0.788119,-1.09862,1.18627
1541874456860000,-0.778208,-1.10208,1.1608
1541874456865004,-0.766775,-1.10677,1.13157
1541874456912061,-0.705449,-1.14018,0.945585
1541874456935059,-0.693512,-1.14651,0.90247
1541874456966138,-0.671984,-1.15782,0.812068
1541874456995124,-0.659203,-1.164,0.76528
1541874457016177,-0.627731,-1.17982,0.667952
1541874457068220,-0.612064,-1.1889,0.621295
1541874457143221,-0.593413,-1.19956,0.575933
1541874457152244,-0.568405,-1.21143,0.529892
1541874457182315,-0.478414,-1.25453,0.395963
1541874457183255,-0.387728,-1.29552,0.265056
1541874457205290,-0.35852,-1.30665,0.220205
1541874457209288,-0.332459,-1.31618,0.17759
1541874457228303,-0.310433,-1.32459,0.13827
1541874457256310,-0.292182,-1.33181,0.103704
1541874457271324,-0.280017,-1.33788,0.0770144
1541874457301347,-0.288286,-1.34393,0.0750125
1541874457324383,-0.312101,-1.35038,0.102858
1541874457326385,-0.334121,-1.35918,0.147738
1541874457452467,-0.37288,-1.3674,0.21299
1541874457474501,-0.433523,-1.37228,0.294605
1541874457489513,-0.760488,-1.33357,0.630718
1541874457491495,-0.804161,-1.31439,0.664862
1541874457504520,-0.84753,-1.29076,0.701145
1541874457527542,-0.891058,-1.26481,0.740338
1541874457564563,-0.930083,-1.23661,0.778144
1541874457625611,-0.963459,-1.20739,0.812367
1541874457639630,-0.990695,-1.17865,0.842182
1541874457676697,-1.02272,-1.12489,0.88542
1541874457679665,-1.02996,-1.10119,0.900031
1541874457708686,-1.03473,-1.0808,0.911689
1541874457719694,-1.03688,-1.06357,0.919733
1541874457731703,-1.03775,-1.0393,0.928649
1541874457751754,-1.03766,-1.03309,0.929896
1541874457773717,-1.03611,-1.03156,0.927781
1541874457788729,-1.03427,-1.03464,0.921332
1541874457817754,-1.03153,-1.04268,0.910122
1541874457833764,-1.02333,-1.05438,0.892975
1541874457856796,-1.0101,-1.06989,0.871982
1541874457894823,-0.991453,-1.08596,0.846205
1541874458096990,-0.971931,-1.10118,0.817695
1541874458098988,-0.961895,-1.11806,0.792342
1541874458105983,-0.956629,-1.13846,0.769175
1541874458118988,-0.750324,-1.32977,0.359868
1541874458140023,-0.732218,-1.33879,0.306616
1541874458149013,-0.709593,-1.34687,0.251162
1541874458170048,-0.681097,-1.35472,0.192578
1541874458194084,-0.641908,-1.36319,0.127053
1541874458223090,-0.595436,-1.37272,0.0568868
1541874458237101,-0.549784,-1.38221,-0.0133635
1541874458246088,-0.501894,-1.38989,-0.0842293
1541874458269145,-0.460103,-1.3941,-0.146579
1541874458299145,-0.429671,-1.39785,-0.197218
1541874458323171,-0.405262,-1.40236,-0.241744
1541874458367202,-0.389089,-1.40704,-0.278062
1541874458369184,-0.379605,-1.41199,-0.30669
1541874458374204,-0.373761,-1.41573,-0.329028
1541874458397226,-0.380433,-1.42076,-0.337793
1541874458412238,-0.400278,-1.42486,-0.331445
1541874458457273,-0.438929,-1.42894,-0.305688
1541874458472285,-0.502901,-1.43314,-0.253728
1541874458478280,-0.576981,-1.43537,-0.190468
1541874458496304,-0.654151,-1.43579,-0.124537
1541874458509313,-0.720188,-1.43467,-0.0715012
1541874458530366,-0.778187,-1.43009,-0.0274598
1541874458546323,-0.833322,-1.42209,0.0127057
1541874458570361,-0.888401,-1.41115,0.0548041
1541874458593361,-0.940767,-1.39744,0.0962726
1541874458616393,-0.988553,-1.38082,0.132781
1541874458636394,-1.03318,-1.36158,0.163346
1541874458652410,-1.07382,-1.33929,0.18635
1541874458667439,-1.10663,-1.31578,0.196293
1541874458688455,-1.1323,-1.2885,0.1925
1541874458694441,-1.15668,-1.25695,0.185897
1541874458716477,-1.17645,-1.22399,0.181505
1541874458742479,-1.18808,-1.1911,0.175717
1541874458761507,-1.19472,-1.15759,0.168638
1541874458803545,-1.19782,-1.12387,0.158666
1541874458816560,-1.19809,-1.09023,0.14799
1541874458818537,-1.19871,-1.05915,0.137517
1541874458839553,-1.19714,-1.03128,0.126904
1541874458862592,-1.19307,-1.00645,0.11623
1541874458915629,-1.1869,-0.985107,0.105313
1541874458937630,-1.17834,-0.967816,0.0940206
1541874458952643,-1.16285,-0.949886,0.0694574
1541874458974713,-1.15397,-0.94897,0.0521491
1541874459002716,-1.14579,-0.951811,0.0318829
1541874459057735,-1.13832,-0.957648,0.00902315
1541874459063745,-1.13034,-0.966987,-0.0156856
1541874459086803,-1.10759,-0.998882,-0.0711348
1541874459089805,-1.09223,-1.0215,-0.10117
1541874459101779,-1.07219,-1.04731,-0.133845
1541874459124797,-1.04564,-1.07445,-0.170121
1541874459145808,-1.01355,-1.10142,-0.209097
1541874459154802,-0.979402,-1.12804,-0.249755
1541874459174829,-0.94536,-1.15374,-0.292518
1541874459204897,-0.913032,-1.17745,-0.338243
1541874459212866,-0.884142,-1.19919,-0.386498
1541874459241889,-0.853504,-1.21887,-0.440264
1541874459256900,-0.820893,-1.2366,-0.49769
1541874459272905,-0.78148,-1.2532,-0.56261
1541874459293930,-0.733087,-1.26868,-0.638369
1541874459316948,-0.676314,-1.28257,-0.724442
1541874459332943,-0.618211,-1.29483,-0.814452
1541874459353977,-0.558744,-1.30505,-0.907875
1541874459376995,-0.496296,-1.31341,-1.00329
1541874459395005,-0.434525,-1.32083,-1.09684
1541874459414011,-0.375022,-1.32715,-1.18498
1541874459437042,-0.31923,-1.33296,-1.26754
1541874459453048,-0.269149,-1.33812,-1.3422
1541874459474071,-0.223255,-1.3434,-1.41058
1541874459497089,-0.178677,-1.34939,-1.4745
1541874459521108,-0.134527,-1.35632,-1.53518
1541874459534121,-0.0932107,-1.36437,-1.59126
1541874459557139,-0.0548933,-1.37294,-1.64391
1541874459579150,-0.0270752,-1.38236,-1.68732
1541874459594166,-0.00519249,-1.39131,-1.7252
1541874459617184,-0.00351756,-1.39993,-1.74333
1541874459635194,-0.0179049,-1.40818,-1.74442
1541874459657196,-0.0470766,-1.41493,-1.72292
1541874459677230,-0.0936444,-1.42108,-1.67533
1541874459701287,-0.15811,-1.42681,-1.60364
1541874459730273,-0.239494,-1.43018,-1.51191
1541874459740262,-0.333811,-1.43049,-1.40961
1541874459762298,-0.43513,-1.42637,-1.30461
1541874459774307,-0.533955,-1.41703,-1.20584
1541874459797327,-0.626288,-1.40337,-1.11423
1541874459814374,-0.706184,-1.38714,-1.03445
1541874459836352,-0.779988,-1.36599,-0.958859
1541874459859408,-0.847475,-1.34137,-0.893515
1541874459888432,-0.904439,-1.31033,-0.839894
1541874459894437,-0.955433,-1.27527,-0.794416
1541874459917419,-0.99798,-1.23952,-0.75968
1541874459934428,-1.03594,-1.2023,-0.727963
1541874459961455,-1.06234,-1.16757,-0.703798
1541874459979450,-1.07734,-1.13614,-0.688594
1541874459994478,-1.0837,-1.10774,-0.681042
1541874460021537,-1.08485,-1.08187,-0.679332
1541874460032511,-1.08621,-1.05966,-0.680552
1541874460054509,-1.08538,-1.04111,-0.683953
1541874460074543,-1.08416,-1.02591,-0.689532
1541874460092554,-1.08029,-1.01404,-0.699451
1541874460114565,-1.07317,-1.00567,-0.713659
1541874460135584,-1.06378,-1.00136,-0.73311
1541874460164614,-1.05906,-1.00083,-0.756047
1541874460173621,-1.05392,-1.00404,-0.784194
1541874460194640,-1.04135,-1.01124,-0.819589
1541874460217651,-1.02569,-1.02192,-0.859226
1541874460233665,-1.01265,-1.03565,-0.897658
1541874460254719,-0.999604,-1.05371,-0.934773
1541874460278699,-0.981414,-1.0755,-0.974371
1541874460293696,-0.956807,-1.1,-1.019
1541874460314768,-0.927134,-1.12535,-1.06952
1541874460330724,-0.894809,-1.14967,-1.12657
1541874460353743,-0.86186,-1.17238,-1.18871
1541874460374815,-0.83031,-1.19357,-1.25389
1541874460390773,-0.801144,-1.21319,-1.31909
1541874460413791,-0.771553,-1.23124,-1.38364
1541874460434827,-0.740628,-1.24806,-1.448
1541874460450820,-0.707452,-1.26327,-1.51194
1541874460473841,-0.668241,-1.27605,-1.58195
1541874460496856,-0.627676,-1.28577,-1.65693
1541874460510868,-0.593191,-1.29269,-1.72814
1541874460533884,-0.564168,-1.2991,-1.79505
1541874460556918,-0.535095,-1.30606,-1.86053
1541874460570935,-0.503841,-1.31249,-1.92326
1541874460593932,-0.471684,-1.32051,-1.98405
1541874460616966,-0.437442,-1.32886,-2.04354
1541874460637982,-0.401978,-1.33766,-2.102
1541874460653989,-0.365083,-1.34706,-2.15849
1541874460677017,-0.322543,-1.35695,-2.21486
1541874460698027,-0.283105,-1.36774,-2.2647
1541874460714045,-0.250689,-1.37752,-2.30412
1541874460736045,-0.226917,-1.38639,-2.33419
1541874460758062,-0.222049,-1.39398,-2.34611
1541874460774089,-0.236174,-1.40055,-2.34087
1541874460796148,-0.269242,-1.405,-2.31813
1541874460817129,-0.309002,-1.40709,-2.28756
1541874460834141,-0.357767,-1.40741,-2.24705
1541874460856157,-0.409877,-1.40736,-2.20363
1541874460877174,-0.470727,-1.4042,-2.15189
1541874460894187,-0.544307,-1.39861,-2.09093
1541874460917197,-0.616124,-1.38798,-2.02336
1541874460937256,-0.692023,-1.37469,-1.94416
1541874460954236,-0.761827,-1.36098,-1.86823
1541874460976247,-0.820639,-1.34352,-1.80241
1541874460997251,-0.870144,-1.32149,-1.74895
1541874461014298,-0.9155,-1.29406,-1.70287
1541874461036281,-0.962103,-1.25886,-1.65568
1541874461057315,-0.998963,-1.22095,-1.61621
1541874461074328,-1.02664,-1.18089,-1.58556
1541874461096328,-1.04691,-1.13784,-1.56396
1541874461117346,-1.06496,-1.09215,-1.54977
1541874461134411,-1.07983,-1.04532,-1.54229
1541874461156374,-1.0948,-0.99895,-1.53755
1541874461177410,-1.10832,-0.955184,-1.53435
1541874461193421,-1.11766,-0.916548,-1.5322
1541874461216421,-1.12392,-0.885218,-1.53074
1541874461237457,-1.12616,-0.859045,-1.5326
1541874461253469,-1.12685,-0.838193,-1.53776
1541874461276483,-1.12806,-0.82161,-1.5451
1541874461297504,-1.12982,-0.809106,-1.55426
1541874461313517,-1.13235,-0.801778,-1.56374
1541874461336515,-1.13416,-0.80082,-1.57394
1541874461357551,-1.13464,-0.805731,-1.58494
1541874461373558,-1.13139,-0.816551,-1.59694
1541874461396563,-1.12351,-0.833052,-1.61294
1541874461418599,-1.11503,-0.8545,-1.63043
1541874461433606,-1.11014,-0.879901,-1.64888
1541874461456611,-1.1058,-0.907926,-1.67099
1541874461478636,-1.09784,-0.939482,-1.69886
1541874461499662,-1.08242,-0.972881,-1.73305
1541874461516676,-1.06298,-1.00801,-1.76959
1541874461538693,-1.03906,-1.04341,-1.80897
1541874461560725,-1.00741,-1.07736,-1.85352
1541874461576719,-0.972311,-1.10951,-1.90415
1541874461598735,-0.938048,-1.13848,-1.96098
1541874461619792,-0.906074,-1.16586,-2.02372
1541874461636751,-0.875846,-1.18759,-2.08843
1541874461659796,-0.845932,-1.20565,-2.15243
1541874461679803,-0.813783,-1.22031,-2.21339
1541874461696817,-0.781547,-1.23322,-2.272
1541874461720836,-0.753279,-1.24397,-2.32708
1541874461739851,-0.730329,-1.25182,-2.37883
1541874461756865,-0.711271,-1.25845,-2.42513
1541874461778879,-0.690753,-1.26408,-2.47103
1541874461807905,-0.671805,-1.26847,-2.51516
1541874461816932,-0.64954,-1.27223,-2.5607
1541874461838912,-0.6292,-1.27578,-2.60606
1541874461859945,-0.609154,-1.28048,-2.65201
1541874461876954,-0.588544,-1.28629,-2.69626
1541874461898959,-0.562609,-1.29361,-2.74199
1541874461919992,-0.528027,-1.30227,-2.79114
1541874461936987,-0.48545,-1.31117,-2.84376
1541874461959004,-0.442388,-1.31957,-2.89516
1541874461980020,-0.401984,-1.32772,-2.94336
1541874461997056,-0.367893,-1.33458,-2.98454
1541874462019051,-0.338809,-1.34073,-3.01936
1541874462040068,-0.315242,-1.34613,-3.04698
1541874462057095,-0.296017,-1.35,-3.07023
1541874462079109,-0.287854,-1.35179,-3.08418
1541874462100134,-0.293581,-1.35364,-3.08591
1541874462116147,-0.30948,-1.3537,-3.07665
1541874462139164,-0.334114,-1.35378,-3.05595
1541874462160182,-0.368861,-1.35353,-3.0213
1541874462176175,-0.4009,-1.35173,-2.98163
1541874462199193,-0.430181,-1.34935,-2.93632
1541874462220226,-0.462045,-1.34678,-2.88582
1541874462236243,-0.502747,-1.34193,-2.82897
1541874462259240,-0.552803,-1.33349,-2.76589
1541874462280257,-0.609223,-1.3218,-2.69887
1541874462296269,-0.665209,-1.3076,-2.63464
1541874462319287,-0.716255,-1.29022,-2.57507
1541874462341304,-0.761674,-1.27078,-2.52041
1541874462356316,-0.80222,-1.24963,-2.4709
1541874462379390,-0.841313,-1.22816,-2.4243
1541874462401352,-0.882221,-1.20651,-2.37815
1541874462416364,-0.927096,-1.18348,-2.32952
1541874462439415,-0.961982,-1.15735,-2.28789
1541874462461401,-0.988458,-1.13033,-2.25515
1541874462482415,-1.01367,-1.10275,-2.22851
1541874462499429,-1.04331,-1.07556,-2.20223
1541874462521445,-1.07159,-1.05031,-2.17649
1541874462542462,-1.09372,-1.0289,-2.15282
1541874462559476,-1.11001,-1.01233,-2.13316
1541874462581508,-1.12367,-1.00106,-2.11666
1541874462602529,-1.13442,-0.995234,-2.10483
1541874462619543,-1.14312,-0.995004,-2.09693
1541874462641540,-1.14603,-1.00147,-2.09492
1541874462662556,-1.14044,-1.01508,-2.10209
1541874462679570,-1.1328,-1.03353,-2.11493
1541874462701588,-1.12582,-1.05614,-2.12974
1541874462724606,-1.11665,-1.08093,-2.14289
1541874462739646,-1.09974,-1.10649,-2.15536
1541874462761635,-1.07367,-1.13318,-2.17
1541874462782651,-1.04482,-1.15997,-2.18925
1541874462799666,-1.01449,-1.18484,-2.21636
1541874462821681,-0.981426,-1.20704,-2.25373
1541874462842698,-0.947468,-1.22577,-2.29933
1541874462858711,-0.91516,-1.24132,-2.35027
1541874462881729,-0.883168,-1.25311,-2.403
1541874462902745,-0.84689,-1.26181,-2.45823
1541874462918758,-0.809938,-1.26847,-2.51383
1541874462941791,-0.775957,-1.27259,-2.5673
1541874462962812,-0.745247,-1.27508,-2.61878
1541874462978816,-0.712692,-1.27649,-2.67085
1541874463001823,-0.68172,-1.27764,-2.71984
1541874463022895,-0.646513,-1.27898,-2.77048
1541874463038853,-0.609562,-1.28036,-2.82285
1541874463061871,-0.572291,-1.28144,-2.87548
1541874463082905,-0.538092,-1.28392,-2.9269
1541874463098919,-0.503969,-1.28701,-2.97762
1541874463121936,-0.467505,-1.29137,-3.02801
1541874463142953,-0.425632,-1.29619,-3.08039
1541874463158965,-0.378061,-1.30135,-3.13584
1541874463165956,-0.327465,-1.30707,3.09028
1541874463186983,-0.281261,-1.31234,3.03815
1541874463210006,-0.240671,-1.31672,2.99428
1541874463226001,-0.206355,-1.32046,2.95933
1541874463255022,-0.17524,-1.32399,2.93121
1541874463270034,-0.1497,-1.32633,2.91022
1541874463286064,-0.133267,-1.32779,2.89752
1541874463307082,-0.131066,-1.3289,2.89642
1541874463330100,-0.139018,-1.33014,2.90591
1541874463345093,-0.150935,-1.33242,2.92293
1541874463367130,-0.161434,-1.33478,2.94169
1541874463389146,-0.177049,-1.33736,2.96667
1541874463404158,-0.201355,-1.33893,2.99915
1541874463427213,-0.228039,-1.33806,3.03562
1541874463449194,-0.260276,-1.33515,3.08239
1541874463464205,-0.300474,-1.33183,3.14036
1541874463487259,-0.349571,-1.3279,-3.07519
1541874463509241,-0.406777,-1.32192,-2.99988
1541874463526254,-0.466309,-1.3131,-2.92342
1541874463550273,-0.524075,-1.3019,-2.8506
1541874463569288,-0.581668,-1.28724,-2.77987
1541874463584300,-0.64195,-1.26925,-2.70698
1541874463607318,-0.704721,-1.24841,-2.63198
1541874463629336,-0.766953,-1.22181,-2.55808
1541874463644346,-0.822945,-1.19221,-2.4912
1541874463667362,-0.87078,-1.16025,-2.4332
1541874463689363,-0.911941,-1.12589,-2.38225
1541874463704390,-0.9482,-1.09097,-2.33709
1541874463727393,-0.980479,-1.0565,-2.29588
1541874463751433,-1.00772,-1.02364,-2.25932
1541874463764438,-1.02937,-0.992903,-2.22648
1541874463787460,-1.04826,-0.966113,-2.19629
1541874463809460,-1.0638,-0.942689,-2.1688
1541874463824469,-1.07682,-0.922596,-2.14511
1541874463847542,-1.08827,-0.906583,-2.12433
1541874463869507,-1.09982,-0.8954,-2.10473
1541874463884571,-1.10902,-0.889836,-2.08799
1541874463910576,-1.115,-0.889126,-2.07464
1541874463929572,-1.11901,-0.893702,-2.06468
1541874463946584,-1.12346,-0.903721,-2.05807
1541874463967595,-1.12773,-0.919391,-2.05563
1541874463984615,-1.12863,-0.940285,-2.05904
1541874464006613,-1.12483,-0.965116,-2.06909
1541874464026682,-1.11819,-0.991938,-2.08459
1541874464044644,-1.10898,-1.02065,-2.10524
1541874464065661,-1.09536,-1.05102,-2.1327
1541874464086678,-1.07431,-1.08182,-2.1675
1541874464104704,-1.04898,-1.11263,-2.2076
1541874464125757,-1.02187,-1.14335,-2.25221
1541874464146737,-0.991716,-1.17216,-2.30028
1541874464164736,-0.957093,-1.19899,-2.35095
1541874464185780,-0.91617,-1.22372,-2.40598
1541874464206789,-0.872271,-1.24594,-2.46497
1541874464224784,-0.827854,-1.26438,-2.52724
1541874464247821,-0.785671,-1.27885,-2.59018
1541874464266837,-0.745196,-1.28944,-2.65204
1541874464284833,-0.709906,-1.29709,-2.70891
1541874464307864,-0.680103,-1.30176,-2.75864
1541874464326885,-0.656414,-1.30463,-2.80059
1541874464344877,-0.637895,-1.30673,-2.83667
1541874464367911,-0.622715,-1.3073,-2.86726
1541874464386966,-0.612876,-1.30806,-2.89317
1541874464404925,-0.604584,-1.30881,-2.91561
1541874464427963,-0.59825,-1.30919,-2.9339
1541874464446977,-0.593909,-1.30956,-2.94643
1541874464464973,-0.595052,-1.30954,-2.94981
1541874464487992,-0.598342,-1.31019,-2.94832
1541874464507024,-0.603394,-1.31066,-2.94175
1541874464525031,-0.610905,-1.31039,-2.92954
1541874464548055,-0.623092,-1.30948,-2.91051
1541874464567072,-0.638139,-1.30835,-2.88642
1541874464585086,-0.655276,-1.30688,-2.85911
1541874464607103,-0.675424,-1.3054,-2.82993
1541874464629103,-0.69938,-1.30332,-2.7972
1541874464644113,-0.727347,-1.29976,-2.7582
1541874464667150,-0.76142,-1.29646,-2.70831
1541874464688151,-0.796351,-1.29405,-2.65148
1541874464704161,-0.83368,-1.29167,-2.58819
1541874464727199,-0.868559,-1.28847,-2.52621
1541874464748214,-0.905248,-1.28311,-2.46543
1541874464764208,-0.945695,-1.27565,-2.40721
1541874464787226,-0.988689,-1.26643,-2.35294
1541874464808297,-1.0268,-1.25348,-2.30651
1541874464824255,-1.05256,-1.23798,-2.27252
1541874464847284,-1.0692,-1.22016,-2.24398
1541874464875351,-1.08734,-1.20187,-2.21556
1541874464884321,-1.11364,-1.18366,-2.18455
1541874464907320,-1.14148,-1.16445,-2.15266
1541874464929338,-1.16213,-1.14577,-2.12512
1541874464951374,-1.17453,-1.1269,-2.10183
1541874464966386,-1.18433,-1.10927,-2.08108
1541874464987402,-1.19604,-1.09299,-2.06133
1541874465004404,-1.20637,-1.07849,-2.04426
1541874465026416,-1.21424,-1.06606,-2.03001
1541874465047485,-1.21716,-1.05518,-2.02033
1541874465070451,-1.21616,-1.04522,-2.01678
1541874465086492,-1.21137,-1.03481,-2.01495
1541874465107477,-1.20658,-1.0243,-2.01376
1541874465123490,-1.20728,-1.01272,-2.00974
1541874465146516,-1.2072,-0.999668,-2.00476
1541874465167543,-1.20369,-0.985798,-1.99862
1541874465183536,-1.19637,-0.972804,-1.99211
1541874465206568,-1.19199,-0.960476,-1.98502
1541874465229592,-1.18862,-0.949388,-1.97842
1541874465251607,-1.1834,-0.94069,-1.9724
1541874465266602,-1.17592,-0.934616,-1.97055
1541874465296627,-1.168,-0.928749,-1.97567
1541874465303642,-1.1616,-0.926222,-1.98756
1541874465326651,-1.16183,-0.9271,-2.00207
1541874465349722,-1.16363,-0.930776,-2.018
1541874465370684,-1.16447,-0.938434,-2.03526
1541874465386699,-1.1672,-0.950483,-2.05389
1541874465416721,-1.16631,-0.968785,-2.07785
1541874465447747,-1.16168,-0.990418,-2.10667
1541874465460811,-1.15533,-1.01344,-2.13835
1541874465468814,-1.14437,-1.03586,-2.17356
1541874465490797,-1.13231,-1.05529,-2.20881
1541874465506845,-1.1242,-1.07214,-2.23742
1541874465529824,-1.12102,-1.08888,-2.25861
1541874465557850,-1.1146,-1.10704,-2.28011
1541874465566858,-1.10539,-1.12717,-2.30439
1541874465589864,-1.09351,-1.14762,-2.33638
1541874465611884,-1.07983,-1.1677,-2.37613
1541874465633910,-1.06896,-1.18765,-2.419
1541874465656927,-1.05826,-1.20753,-2.46362
1541874465669938,-1.0436,-1.22678,-2.51022
1541874465686951,-1.02522,-1.24661,-2.55857
1541874465709005,-1.00304,-1.26617,-2.60771
1541874465731978,-0.978952,-1.28571,-2.65903
1541874465747000,-0.949894,-1.30451,-2.71592
1541874465769013,-0.916056,-1.32263,-2.78006
1541874465790033,-0.880582,-1.3394,-2.84759
1541874465807048,-0.840764,-1.35548,-2.91879
1541874465829073,-0.788144,-1.36972,-2.99881
1541874465850079,-0.728018,-1.38349,-3.08526
1541874465867093,-0.659597,-1.39421,3.10649
1541874465889107,-0.596199,-1.40283,3.02243
1541874465910127,-0.547923,-1.40964,2.95791
1541874465926121,-0.52268,-1.41557,2.92341
1541874465949144,-0.518679,-1.42059,2.91679
1541874465970174,-0.536205,-1.42453,2.939
1541874465986169,-0.579375,-1.4282,2.99076
1541874466009187,-0.639948,-1.4299,3.05985
1541874466030221,-0.688848,-1.42883,3.11628
1541874466046220,-0.730106,-1.42272,-3.12035
1541874466069232,-0.780597,-1.41089,-3.06542
1541874466092306,-0.842555,-1.39241,-2.99459
1541874466106272,-0.904869,-1.3673,-2.91689
1541874466129295,-0.972222,-1.33335,-2.83066
1541874466152317,-1.02835,-1.29278,-2.75802
1541874466166328,-1.07015,-1.24703,-2.70099
1541874466189337,-1.09678,-1.20021,-2.65797
1541874466219357,-1.1089,-1.15279,-2.62592
1541874466226375,-1.11413,-1.10592,-2.60147
1541874466249375,-1.11704,-1.0595,-2.58281
1541874466272406,-1.12042,-1.01373,-2.56751
1541874466293409,-1.12417,-0.969531,-2.5543
1541874466309421,-1.1256,-0.928066,-2.54303
1541874466331458,-1.12154,-0.89091,-2.53495
1541874466353466,-1.11284,-0.85926,-2.53053
1541874466369488,-1.10146,-0.833338,-2.53058
1541874466392487,-1.08972,-0.813577,-2.5333
1541874466412558,-1.08004,-0.800246,-2.53856
1541874466429537,-1.07161,-0.792522,-2.54715
1541874466451555,-1.05829,-0.790644,-2.56118
1541874466480575,-1.03981,-0.794359,-2.58031
1541874466489583,-1.02643,-0.800476,-2.60194
1541874466511594,-1.01829,-0.811637,-2.6234
1541874466532651,-1.01548,-0.827953,-2.64279
1541874466549630,-1.01069,-0.849791,-2.66198
1541874466571649,-1.0017,-0.876155,-2.6831
1541874466600669,-0.992749,-0.907277,-2.70675
1541874466609656,-0.983245,-0.939166,-2.73501
1541874466631686,-0.972392,-0.977555,-2.76826
1541874466652710,-0.957051,-1.02003,-2.80718
1541874466669723,-0.938608,-1.06221,-2.85037
1541874466691723,-0.921034,-1.1007,-2.89542
1541874466714746,-0.906711,-1.13414,-2.93705
1541874466736761,-0.886648,-1.16853,-2.97899
1541874466759790,-0.863292,-1.20087,-3.01968
1541874466772840,-0.837049,-1.23097,-3.06472
1541874466789853,-0.809413,-1.25881,-3.11697
1541874466811826,-0.782715,-1.28414,3.10522
1541874466834845,-0.744539,-1.3078,3.02623
1541874466849866,-0.692643,-1.33036,2.93084
1541874466871873,-0.622265,-1.35059,2.81748
1541874466892899,-0.53542,-1.369,2.68827
1541874466908912,-0.430869,-1.38556,2.54394
1541874466931920,-0.306745,-1.40036,2.38187
1541874466954942,-0.199585,-1.40828,2.23973
1541874466976964,-0.092083,-1.41271,2.0999
1541874466991977,0.00972292,-1.41541,1.97038
1541874467012994,0.0990604,-1.41569,1.85548
1541874467029005,0.168787,-1.41482,1.76273
1541874467052014,0.211811,-1.41308,1.69919
1541874467074044,0.22642,-1.41132,1.66584
1541874467097059,0.210127,-1.41126,1.66705
1541874467119074,0.1661,-1.41127,1.70002
1541874467142095,0.0998824,-1.41177,1.7635
1541874467164111,0.00550092,-1.4129,1.86476
1541874467172117,-0.125961,-1.41377,2.01174
1541874467194132,-0.268971,-1.41152,2.17897
1541874467209147,-0.393876,-1.40091,2.33423
1541874467232165,-0.506115,-1.3809,2.47937
1541874467254171,-0.630271,-1.3518,2.63606
1541874467275195,-0.736718,-1.3105,2.7748
1541874467298217,-0.816777,-1.25887,2.88753
1541874467314211,-0.872958,-1.20069,2.97591
1541874467335246,-0.907028,-1.13985,3.04178
1541874467352260,-0.922959,-1.07871,3.08704
1541874467374258,-0.928341,-1.01759,3.1168
1541874467395294,-0.932491,-0.956048,3.13707
1541874467412307,-0.939703,-0.894035,-3.13174
1541874467435307,-0.949229,-0.831984,-3.12167
1541874467455341,-0.957956,-0.770651,-3.11607
1541874467472353,-0.967875,-0.711902,-3.11207
1541874467494351,-0.976696,-0.656345,-3.10913
1541874467515388,-0.981386,-0.60527,-3.10638
1541874467532382,-0.981997,-0.559475,-3.1046
1541874467562424,-0.980547,-0.519521,-3.10402
1541874467592448,-0.978815,-0.491819,-3.10456
1541874467595445,-0.977667,-0.470085,-3.10637
1541874467598449,-0.977924,-0.455451,-3.1096
1541874467619470,-0.977729,-0.451649,-3.11481
1541874467642488,-0.974765,-0.461418,-3.12263
1541874467657500,-0.96887,-0.484436,-3.13447
1541874467679519,-0.963845,-0.518406,3.13255
1541874467702535,-0.966731,-0.561415,3.11326
1541874467720548,-0.980015,-0.60425,3.09156
1541874467739598,-0.993512,-0.657412,3.06457
1541874467771625,-0.997764,-0.717697,3.03349
1541874467777593,-0.996098,-0.780341,3.00158
1541874467799611,-0.995174,-0.84438,2.96927
1541874467822629,-0.995793,-0.909001,2.93415
1541874467837641,-0.991372,-0.972713,2.89104
1541874467859642,-0.97685,-1.03518,2.8376
1541874467883668,-0.951088,-1.096,2.77237
1541874467897688,-0.911528,-1.15538,2.69205
1541874467919705,-0.851419,-1.21197,2.58869
1541874467942719,-0.761488,-1.26352,2.45274
1541874467960737,-0.629143,-1.30655,2.27139
1541874467982736,-0.448321,-1.33742,2.04096
1541874468002766,-0.229683,-1.35378,1.77546
1541874468017783,-0.0116708,-1.35386,1.51207
1541874468039801,0.166489,-1.34042,1.28757
1541874468062817,0.287815,-1.32071,1.11923
1541874468077830,0.364109,-1.29919,0.998787
1541874468099847,0.378149,-1.28143,0.945319
1541874468122865,0.377396,-1.26798,0.916874
1541874468144882,0.365917,-1.2596,0.908756
1541874468159895,0.343525,-1.257,0.919432
1541874468177909,0.31205,-1.25947,0.945669
1541874468196923,0.264886,-1.26376,0.989388
1541874468219941,0.197373,-1.27074,1.05495
1541874468237956,0.109074,-1.28048,1.14319
1541874468257968,0.00807162,-1.28995,1.24697
1541874468279989,-0.104777,-1.29456,1.36404
1541874468298005,-0.234459,-1.29408,1.49978
1541874468325007,-0.390036,-1.28643,1.66618
1541874468340071,-0.553509,-1.26862,1.84848
1541874468358050,-0.706634,-1.23896,2.0328
1541874468380055,-0.828906,-1.19761,2.20053
1541874468403080,-0.912753,-1.1471,2.34041
1541874468418114,-0.968276,-1.09062,2.4534
1541874468437112,-1.00626,-1.02971,2.54436
1541874468460130,-1.03231,-0.965242,2.61811
1541874468478136,-1.04924,-0.897435,2.67782
1541874468497159,-1.05987,-0.826417,2.72584
1541874468520177,-1.0676,-0.753677,2.76554
1541874468538191,-1.07189,-0.681627,2.79816
1541874468557241,-1.07224,-0.611957,2.82526
1541874468580260,-1.06862,-0.546312,2.84824
1541874468598238,-1.06008,-0.486408,2.8668
1541874468617253,-1.0488,-0.433127,2.8818
1541874468647312,-1.03764,-0.388162,2.89234
1541874468658286,-1.02711,-0.359124,2.89781
1541874468679303,-1.02,-0.341345,2.89921
1541874468700319,-1.01549,-0.336373,2.89632
1541874468718332,-1.01275,-0.345588,2.88904
1541874468740341,-1.01032,-0.366949,2.87706
1541874468784421,-1.01262,-0.3981,2.86139
1541874468787387,-1.02447,-0.432633,2.84285
1541874468808389,-1.03747,-0.480986,2.81899
1541874468827419,-1.04341,-0.537906,2.79201
1541874468837426,-1.04633,-0.598513,2.76283
1541874468859424,-1.0525,-0.660281,2.73305
1541874468880444,-1.06546,-0.725362,2.70351
1541874468898456,-1.07814,-0.794448,2.66993
1541874468918491,-1.08148,-0.86537,2.62838
1541874468939508,-1.07566,-0.937506,2.57908
1541874468957521,-1.06706,-1.01056,2.52248
1541874468980539,-1.0568,-1.08352,2.45684
1541874468999550,-1.04007,-1.15459,2.37674
1541874469017567,-1.0062,-1.22291,2.27593
1541874469040586,-0.938523,-1.2871,2.14258
1541874469060602,-0.81612,-1.34459,1.95871
1541874469077607,-0.608178,-1.39174,1.69246
1541874469099622,-0.299534,-1.42194,1.326
1541874469120684,0.055893,-1.42942,0.913163
1541874469136661,0.349769,-1.41895,0.564373
1541874469159696,0.553701,-1.40129,0.312145
1541874469180697,0.693102,-1.38286,0.134013
1541874469196689,0.743426,-1.37338,0.0533121
1541874469219708,0.774357,-1.369,-0.00065388
1541874469240742,0.795907,-1.3719,-0.0356508
1541874469256757,0.805844,-1.37996,-0.0501758
1541874469279757,0.804583,-1.39391,-0.0435557
1541874469300791,0.788475,-1.41394,-0.0131816
1541874469316797,0.749023,-1.44148,0.0535627
1541874469339838,0.721772,-1.46685,0.118597
1541874469360837,0.528652,-1.49368,0.350472
1541874469376853,-0.0544316,-1.50911,0.969412
1541874469399863,-0.722525,-1.48334,1.67001
1541874469420920,-1.0175,-1.42875,1.99631
1541874469436878,-1.13304,-1.35855,2.14154
1541874469459915,-1.18342,-1.28394,2.22277
1541874469480932,-1.20063,-1.20676,2.26951
1541874469496926,-1.19971,-1.12879,2.2941
1541874469519980,-1.19525,-1.05061,2.30932
1541874469540979,-1.19444,-0.971869,2.32385
1541874469556971,-1.1963,-0.892004,2.33786
1541874469580012,-1.19973,-0.812699,2.35012
1541874469601026,-1.20356,-0.736211,2.36101
1541874469617029,-1.20771,-0.664198,2.37259
1541874469640057,-1.20983,-0.598661,2.38689
1541874469661073,-1.20637,-0.541184,2.40384
1541874469676081,-1.19619,-0.489854,2.42242
1541874469700103,-1.18525,-0.444354,2.44148
1541874469721120,-1.17915,-0.40376,2.46033
1541874469736130,-1.18011,-0.367895,2.47863
1541874469760132,-1.18629,-0.337035,2.49603
1541874469781189,-1.19912,-0.316823,2.51297
1541874469805198,-1.21542,-0.302093,2.52816
1541874469819197,-1.23091,-0.290471,2.54247
1541874469841196,-1.24429,-0.282671,2.55549
1541874469856208,-1.25313,-0.277799,2.56631
1541874469879245,-1.25956,-0.275234,2.5768
1541874469909268,-1.2726,-0.277164,2.58818
1541874469916266,-1.28813,-0.289072,2.59404
1541874469939291,-1.29567,-0.302484,2.59533
1541874469962309,-1.30222,-0.309856,2.59894
1541874469984353,-1.31137,-0.311006,2.60493
1541874470007327,-1.31831,-0.309301,2.61167
1541874470022356,-1.31814,-0.307189,2.61741
1541874470043374,-1.31898,-0.304034,2.62298
1541874470067392,-1.32311,-0.299253,2.628
1541874470082392,-1.32502,-0.292991,2.63165
1541874470103420,-1.32402,-0.28436,2.63374
1541874470119414,-1.32399,-0.274112,2.63534
1541874470142467,-1.32591,-0.264197,2.63742
1541874470163468,-1.32826,-0.255541,2.64006
1541874470179469,-1.3331,-0.247317,2.64355
1541874470202498,-1.33566,-0.239604,2.64803
1541874470223551,-1.33846,-0.233554,2.65398
1541874470241528,-1.34162,-0.228758,2.66085
1541874470262542,-1.34403,-0.224584,2.66976
1541874470283598,-1.34743,-0.220589,2.68039
1541874470299555,-1.3499,-0.217753,2.69228
1541874470322592,-1.35138,-0.214903,2.7046
1541874470343609,-1.35471,-0.211278,2.71789
1541874470360624,-1.35751,-0.208457,2.7305
1541874470382637,-1.36367,-0.207382,2.74176
1541874470403656,-1.37251,-0.20725,2.75364
1541874470419650,-1.3824,-0.208633,2.76519
1541874470442697,-1.39598,-0.211861,2.77795
1541874470463696,-1.41604,-0.220982,2.79054
1541874470479715,-1.4269,-0.23277,2.80309
1541874470501733,-1.43537,-0.240586,2.81919
1541874470524733,-1.44071,-0.245566,2.83656
1541874470539763,-1.44179,-0.249293,2.85277
1541874470563778,-1.44349,-0.254531,2.86575
1541874470582833,-1.44663,-0.2609,2.8749
1541874470599828,-1.45103,-0.268373,2.88225
1541874470621827,-1.45502,-0.276563,2.88974
1541874470642880,-1.45767,-0.283556,2.8984
1541874470658839,-1.45962,-0.28805,2.90873
1541874470681867,-1.45915,-0.290987,2.91979
1541874470702877,-1.45666,-0.292389,2.93019
1541874470718884,-1.4547,-0.292623,2.94007
1541874470741922,-1.45268,-0.291262,2.94917
1541874470762938,-1.44938,-0.288781,2.95682
1541874470778932,-1.445,-0.285236,2.96345
1541874470801951,-1.44042,-0.281671,2.96952
1541874470822987,-1.43572,-0.27882,2.97519
1541874470838993,-1.43034,-0.276946,2.97982
1541874470862003,-1.425,-0.276482,2.98416
1541874470885035,-1.42051,-0.277191,2.98774
1541874470899045,-1.41739,-0.278374,2.99148
1541874470922045,-1.41502,-0.279924,2.9959
1541874470945081,-1.41281,-0.282618,3.00129
1541874470959074,-1.41148,-0.285903,3.00676
1541874470982091,-1.41175,-0.290351,3.01236
1541874471005146,-1.41899,-0.297363,3.01837
1541874471026145,-1.4261,-0.309851,3.02275
1541874471042139,-1.42724,-0.324231,3.02852
1541874471065176,-1.42669,-0.335333,3.03754
1541874471086193,-1.42197,-0.341766,3.04726
1541874471102197,-1.41776,-0.345385,3.05588
1541874471125219,-1.41637,-0.347763,3.06396
1541874471146239,-1.41697,-0.34951,3.07341
1541874471162234,-1.41896,-0.351591,3.08503
1541874471185251,-1.42159,-0.353601,3.09801
1541874471206269,-1.42407,-0.355049,3.11101
1541874471222300,-1.42529,-0.354935,3.12407
1541874471244317,-1.42561,-0.353826,3.1381
1541874471266331,-1.42502,-0.352068,-3.12949
1541874471282347,-1.42424,-0.35017,-3.11183
1541874471304410,-1.42405,-0.348804,-3.09294
1541874471325381,-1.42424,-0.34846,-3.07381
1541874471342394,-1.42456,-0.349385,-3.05436
1541874471364418,-1.4263,-0.349903,-3.03482
1541874471385408,-1.42602,-0.350437,-3.01491
1541874471402430,-1.4262,-0.350531,-2.99477
1541874471424451,-1.42603,-0.350355,-2.97449
1541874471445477,-1.42563,-0.34916,-2.95355
1541874471462491,-1.42721,-0.348716,-2.93195
1541874471484487,-1.42924,-0.348693,-2.91098
1541874471505522,-1.43216,-0.348893,-2.89003
1541874471522535,-1.43712,-0.349371,-2.86914
1541874471544540,-1.4423,-0.350058,-2.84894
1541874471565570,-1.44796,-0.350869,-2.82949
1541874471581573,-1.4537,-0.352564,-2.81129
1541874471604590,-1.45767,-0.355021,-2.79532
1541874471625617,-1.45781,-0.357648,-2.7826
1541874471641610,-1.45643,-0.359228,-2.77314
1541874471664627,-1.45716,-0.359143,-2.76557
1541874471685663,-1.459,-0.358007,-2.75901
1541874471701675,-1.46169,-0.357936,-2.75216
1541874471724674,-1.46299,-0.362023,-2.74732
1541874471745711,-1.4603,-0.369009,-2.7438
1541874471761719,-1.45745,-0.379412,-2.74009
1541874471784723,-1.45293,-0.392125,-2.73779
1541874471807755,-1.44475,-0.407317,-2.7384
1541874471821770,-1.43635,-0.424495,-2.74177
1541874471844784,-1.42922,-0.443093,-2.74777
1541874471867798,-1.42531,-0.463317,-2.75644
1541874471881817,-1.42318,-0.485802,-2.76865
1541874471904835,-1.42024,-0.510778,-2.78409
1541874471926853,-1.41548,-0.538588,-2.80148
1541874471949871,-1.40934,-0.569046,-2.8207
1541874471964882,-1.4031,-0.602236,-2.84141
1541874471986936,-1.39444,-0.636956,-2.86557
1541874472007916,-1.38415,-0.674679,-2.89365
1541874472024929,-1.37108,-0.713755,-2.92569
1541874472046947,-1.35719,-0.753655,-2.96152
1541874472052953,-1.34509,-0.793977,-3.00105
1541874472074970,-1.33529,-0.834642,-3.04398
1541874472089982,-1.32647,-0.876151,-3.09123
1541874472112999,-1.31635,-0.917362,3.13982
1541874472131013,-1.30437,-0.957498,3.084
1541874472161037,-1.28942,-0.99503,3.02609
1541874472173045,-1.27058,-1.03023,2.9667
1541874472191060,-1.24558,-1.06271,2.90481
1541874472210075,-1.21566,-1.0926,2.84064
1541874472233094,-1.18345,-1.12011,2.77488
1541874472251103,-1.1491,-1.14544,2.70774
1541874472270122,-1.11593,-1.16625,2.6425
1541874472293145,-1.08094,-1.18504,2.577
1541874472311136,-1.04374,-1.20192,2.51207
1541874472330170,-1.00331,-1.21731,2.4472
1541874472353184,-0.962305,-1.23034,2.38479
1541874472369200,-0.923249,-1.24118,2.32711
1541874472390217,-0.887968,-1.25017,2.27562
1541874472415237,-0.857056,-1.25782,2.22974
1541874472429247,-0.830893,-1.26338,2.18869
1541874472450245,-0.809852,-1.26743,2.15305
1541874472472282,-0.791926,-1.27048,2.12129
1541874472489294,-0.771557,-1.27393,2.08967
1541874472511306,-0.748348,-1.27811,2.05718
1541874472532329,-0.723715,-1.28219,2.0244
1541874472549337,-0.699017,-1.28597,1.99225
1541874472570359,-0.676729,-1.28961,1.96306
1541874472592412,-0.656764,-1.29172,1.93693
1541874472609406,-0.640607,-1.29335,1.91532
1541874472630405,-0.627638,-1.29374,1.89786
1541874472652422,-0.617097,-1.29339,1.88363
1541874472669440,-0.608982,-1.29248,1.87247
1541874472690454,-0.603768,-1.2901,1.86424
1541874472712470,-0.60291,-1.28681,1.86011
1541874472731485,-0.604892,-1.28287,1.85868
1541874472750501,-0.608084,-1.27898,1.85938
1541874472780524,-0.609906,-1.27497,1.85989
1541874472790511,-0.610978,-1.27103,1.86006
1541874472810542,-0.613413,-1.26763,1.86165
1541874472832565,-0.615028,-1.26375,1.86245
1541874472850560,-0.616298,-1.2602,1.86292
1541874472870594,-0.617418,-1.25728,1.86326
1541874472892647,-0.618057,-1.25381,1.8629
1541874472918632,-0.618245,-1.25104,1.86268
1541874472930641,-0.618191,-1.24836,1.86254
1541874472952660,-0.619096,-1.24611,1.86414
1541874472970655,-0.618257,-1.24444,1.86458
1541874472990688,-0.61649,-1.24309,1.86466
1541874473008685,-0.614856,-1.24246,1.86483
1541874473030702,-0.614723,-1.24173,1.86593
1541874473050737,-0.614387,-1.24139,1.86767
1541874473067749,-0.612613,-1.24065,1.86798
1541874473090766,-0.611637,-1.24038,1.86838
1541874473110774,-0.612654,-1.23986,1.86879
1541874473127797,-0.615062,-1.23905,1.8696
1541874473150814,-0.616261,-1.23738,1.86921
1541874473169829,-0.618727,-1.23562,1.86946
1541874473195850,-0.621379,-1.23272,1.86934
1541874473210862,-0.625602,-1.22861,1.86994
1541874473229875,-0.633001,-1.22344,1.87234
1541874473252895,-0.642168,-1.21607,1.8742
1541874473270910,-0.651301,-1.208,1.87454
1541874473291926,-0.662464,-1.19847,1.87548
1541874473319950,-0.674115,-1.18853,1.87657
1541874473330959,-0.68393,-1.1785,1.87657
1541874473351972,-0.693107,-1.16799,1.87588
1541874473372988,-0.702281,-1.15757,1.87507
1541874473397999,-0.712191,-1.14685,1.87567
1541874473412019,-0.72218,-1.13624,1.87809
1541874473433036,-0.728973,-1.12565,1.87969
1541874473451050,-0.736576,-1.11501,1.88169
1541874473472067,-0.748004,-1.10433,1.88515
1541874473493083,-0.761619,-1.09366,1.88924
1541874473510097,-0.776105,-1.08378,1.8933
1541874473531114,-0.790104,-1.0733,1.89582
1541874473553130,-0.805801,-1.06294,1.89926
1541874473577130,-0.822468,-1.05249,1.90382
1541874473598166,-0.839362,-1.04231,1.90934
1541874473607169,-0.857218,-1.0328,1.91615
1541874473630190,-0.873836,-1.02405,1.92289
1541874473651208,-0.890376,-1.01592,1.92937
1541874473667220,-0.907689,-1.00833,1.93522
1541874473690238,-0.92629,-1.00141,1.94053
1541874473712235,-0.945698,-0.9945,1.94472
1541874473727257,-0.963488,-0.986989,1.94713
1541874473750286,-0.979903,-0.979584,1.94962
1541874473772282,-0.994767,-0.97282,1.95275
1541874473786314,-1.00987,-0.967013,1.95758
1541874473810367,-1.01913,-0.961269,1.96127
1541874473832330,-1.02938,-0.956574,1.96647
1541874473853367,-1.03706,-0.951828,1.97127
1541874473870380,-1.04266,-0.947715,1.9751
1541874473892377,-1.04667,-0.943364,1.97738
1541874473913415,-1.04933,-0.940541,1.97735
1541874473930429,-1.0508,-0.938637,1.97354
1541874473952444,-1.05016,-0.937012,1.96933
1541874473966451,-1.04843,-0.934866,1.96337
1541874473990464,-1.04293,-0.932831,1.95811
1541874474012491,-1.03369,-0.93247,1.95025
1541874474026499,-1.02903,-0.931973,1.94091
1541874474049520,-1.0349,-0.933498,1.9341
1541874474072538,-1.04197,-0.9298,1.9224
1541874474093556,-1.04113,-0.928034,1.91091
1541874474109564,-1.04012,-0.926669,1.89947
1541874474132585,-1.04213,-0.9251,1.88962
1541874474153638,-1.04707,-0.922873,1.88034
1541874474169608,-1.05092,-0.919948,1.86902
1541874474192633,-1.05572,-0.91653,1.85766
1541874474213644,-1.06158,-0.912601,1.84728
1541874474229646,-1.06762,-0.907883,1.83917
1541874474252680,-1.07279,-0.902311,1.83271
1541874474280702,-1.07617,-0.896103,1.82713
1541874474289690,-1.08114,-0.888839,1.82277
1541874474312728,-1.08863,-0.880535,1.821
1541874474333744,-1.09611,-0.87202,1.82022
1541874474349746,-1.10428,-0.863497,1.81916
1541874474372774,-1.11558,-0.854845,1.81828
1541874474393826,-1.12771,-0.845878,1.8178
1541874474409786,-1.13811,-0.838109,1.81681
1541874474432823,-1.14656,-0.831425,1.81558
1541874474453838,-1.15353,-0.824776,1.81491
1541874474468850,-1.15885,-0.818753,1.81368
1541874474492869,-1.16498,-0.812714,1.8118
1541874474513885,-1.17086,-0.807817,1.81021
1541874474529878,-1.17656,-0.804873,1.80944
1541874474559901,-1.18554,-0.804198,1.80785
1541874474573972,-1.20271,-0.80134,1.80439
1541874474588945,-1.21949,-0.795181,1.80147
1541874474612962,-1.22779,-0.792192,1.80088
1541874474634972,-1.23507,-0.792554,1.8022
1541874474657989,-1.24901,-0.796243,1.80668
1541874474672009,-1.2707,-0.800292,1.81464
1541874474695027,-1.29293,-0.802243,1.82207
1541874474709043,-1.30965,-0.80335,1.82767
1541874474732056,-1.31947,-0.806056,1.83202
1541874474755074,-1.32658,-0.809846,1.83614
1541874474776126,-1.33044,-0.813422,1.84029
1541874474792104,-1.3285,-0.816526,1.84629
1541874474815122,-1.31768,-0.82116,1.85198
1541874474836137,-1.30478,-0.826843,1.85789
1541874474852151,-1.28998,-0.832696,1.86019
1541874474875168,-1.27689,-0.837731,1.8607
1541874474896221,-1.26334,-0.842666,1.85981
1541874474912194,-1.24741,-0.848826,1.85939
1541874474935199,-1.2265,-0.855604,1.85723
1541874474956232,-1.20229,-0.864445,1.85231
1541874474972227,-1.17943,-0.873842,1.84431
1541874474995263,-1.16056,-0.885588,1.83669
1541874475016316,-1.13927,-0.899396,1.82687
1541874475032275,-1.11371,-0.91353,1.81518
1541874475055310,-1.08639,-0.929386,1.80463
1541874475076327,-1.05759,-0.947005,1.79326
1541874475092331,-1.02994,-0.96491,1.77992
1541874475115357,-1.00327,-0.981723,1.7647
1541874475136374,-0.977547,-0.995463,1.74868
1541874475152378,-0.95294,-1.00518,1.7337
1541874475175404,-0.935799,-1.011,1.72353
1541874475196422,-0.928836,-1.01273,1.71958
1541874475212415,-0.930924,-1.01059,1.72105
1541874475235451,-0.941171,-1.00444,1.72746
1541874475256468,-0.957608,-0.994385,1.7387
1541874475272465,-0.975864,-0.982209,1.75348
1541874475295499,-0.9939,-0.969195,1.76993
1541874475316515,-1.01328,-0.95632,1.78588
1541874475331520,-1.03497,-0.944323,1.80013
1541874475355538,-1.05656,-0.933005,1.8142
1541874475376554,-1.07235,-0.922252,1.8274
1541874475391556,-1.08309,-0.915196,1.84213
1541874475414592,-1.09142,-0.912244,1.85724
1541874475436602,-1.10236,-0.912258,1.8737
1541874475451602,-1.11904,-0.912417,1.89411
1541874475474675,-1.13694,-0.911715,1.91981
1541874475496653,-1.15398,-0.909924,1.95133
1541874475511650,-1.17099,-0.906491,1.98699
1541874475534681,-1.19413,-0.898107,2.02537
1541874475555703,-1.22118,-0.883497,2.06605
1541874475571697,-1.24572,-0.865217,2.10682
1541874475594725,-1.26853,-0.844083,2.14742
1541874475617752,-1.29045,-0.820759,2.18821
1541874475632764,-1.31258,-0.796298,2.22909
1541874475654762,-1.33431,-0.769542,2.26772
1541874475677798,-1.35568,-0.741095,2.30391
1541874475698799,-1.37515,-0.712005,2.33726
1541874475714825,-1.39462,-0.683539,2.37053
1541874475737843,-1.41403,-0.657394,2.40516
1541874475765871,-1.43225,-0.633411,2.43971
1541874475774868,-1.44775,-0.610525,2.47177
1541874475797894,-1.46082,-0.586748,2.50113
1541874475818891,-1.47329,-0.562558,2.52851
1541874475834903,-1.48671,-0.535763,2.55412
1541874475857936,-1.49829,-0.507931,2.57745
1541874475878958,-1.51074,-0.473092,2.59851
1541874475894952,-1.52182,-0.433138,2.6175
1541874475917987,-1.53062,-0.388256,2.6356
1541874475939005,-1.53862,-0.339269,2.65336
1541874475954998,-1.54664,-0.28748,2.67124
1541874475978032,-1.55441,-0.234739,2.68767
1541874475999051,-1.55947,-0.182044,2.70247
1541874476015055,-1.5623,-0.129393,2.71602
1541874476038076,-1.56466,-0.0769569,2.72908
1541874476059082,-1.56655,-0.0248572,2.74162
1541874476075093,-1.56675,0.0261234,2.75385
1541874476098114,-1.56393,0.075385,2.76713
1541874476119126,-1.55923,0.122644,2.781
1541874476135140,-1.55671,0.167838,2.79459
1541874476157171,-1.55585,0.211959,2.80725
1541874476179190,-1.5521,0.253775,2.81731
1541874476195200,-1.54696,0.294451,2.82739
1541874476217219,-1.54227,0.335413,2.83875
1541874476238240,-1.5387,0.376884,2.85056
1541874476255252,-1.53663,0.417711,2.86294
1541874476277280,-1.5354,0.456908,2.87519
1541874476298286,-1.53187,0.496136,2.88807
1541874476314279,-1.5259,0.535807,2.90091
1541874476337298,-1.52094,0.576364,2.9131
1541874476358334,-1.51799,0.618755,2.9242
1541874476374327,-1.51837,0.662927,2.93337
1541874476397362,-1.51601,0.70797,2.9433
1541874476418417,-1.51092,0.751311,2.95245
1541874476434375,-1.50422,0.792441,2.96441
1541874476457394,-1.49624,0.83103,2.97914
1541874476478419,-1.48667,0.865867,2.99252
1541874476494433,-1.47505,0.893553,3.00254
1541874476517449,-1.46173,0.918392,3.01108
1541874476523463,-1.45223,0.940954,3.01669
1541874476545464,-1.44822,0.958066,3.01692
1541874476562486,-1.44347,0.970813,3.01464
1541874476583502,-1.43789,0.981807,3.01116
1541874476605528,-1.43618,0.988776,3.00793
1541874476621540,-1.43363,0.992875,3.00686
1541874476642557,-1.42791,0.996474,3.00694
1541874476665576,-1.42597,0.999858,3.00628
1541874476682573,-1.42546,1.00298,3.00663
1541874476702604,-1.42418,1.00809,3.00789
1541874476725622,-1.42115,1.01562,3.01062
1541874476741637,-1.41885,1.02357,3.01284
1541874476762647,-1.41626,1.03174,3.01568
1541874476794676,-1.41328,1.03966,3.01779
1541874476800682,-1.41013,1.04608,3.01912
1541874476822699,-1.40692,1.05105,3.01876
1541874476845717,-1.40414,1.05229,3.01533
1541874476867769,-1.40182,1.0507,3.00776
1541874476882729,-1.40108,1.04463,2.9967
1541874476905799,-1.40292,1.03342,2.98043
1541874476921765,-1.40928,1.01648,2.96044
1541874476945775,-1.41815,0.994983,2.93758
1541874476965810,-1.42634,0.971487,2.91376
1541874476980818,-1.43505,0.943811,2.88957
1541874477002835,-1.44386,0.910642,2.8678
1541874477025841,-1.44942,0.875633,2.85033
1541874477040859,-1.4542,0.842618,2.83649
1541874477062888,-1.46056,0.807791,2.82244
1541874477085909,-1.47052,0.76942,2.8128
1541874477101911,-1.48352,0.727029,2.80338
1541874477122933,-1.49357,0.679893,2.79365
1541874477145952,-1.49655,0.629422,2.78514
1541874477161956,-1.4964,0.578265,2.77738
1541874477182981,-1.49702,0.524246,2.7671
1541874477205995,-1.49744,0.466978,2.76064
1541874477221993,-1.49723,0.410607,2.75687
1541874477243064,-1.49606,0.353814,2.7497
1541874477266038,-1.49296,0.296152,2.74108
1541874477282041,-1.48816,0.238042,2.73697
1541874477303076,-1.48461,0.181458,2.73451
1541874477334100,-1.48307,0.126822,2.73042
1541874477342102,-1.47827,0.0730289,2.7243
1541874477363119,-1.46835,0.0191659,2.71921
1541874477386138,-1.459,-0.0343368,2.71859
1541874477402155,-1.4529,-0.0846205,2.71488
1541874477423170,-1.44545,-0.130585,2.70781
1541874477445184,-1.43974,-0.177007,2.70206
1541874477462201,-1.4378,-0.223332,2.69958
1541874477483218,-1.43768,-0.270388,2.69698
1541874477505215,-1.43535,-0.316045,2.69356
1541874477523246,-1.4299,-0.359791,2.68932
1541874477543264,-1.42832,-0.402675,2.68738
1541874477561259,-1.42863,-0.44427,2.68515
1541874477583293,-1.42872,-0.484284,2.68114
1541874477603312,-1.42968,-0.522881,2.67516
1541874477621326,-1.43181,-0.560342,2.66822
1541874477645325,-1.43288,-0.597305,2.66086
1541874477663339,-1.43003,-0.633298,2.65375
1541874477688361,-1.42513,-0.667999,2.64638
1541874477703371,-1.41866,-0.700738,2.63694
1541874477723441,-1.40791,-0.730301,2.62594
1541874477741420,-1.39218,-0.757986,2.61459
1541874477764433,-1.37508,-0.784289,2.60466
1541874477783457,-1.36051,-0.810136,2.59479
1541874477801463,-1.35245,-0.834443,2.58354
1541874477823465,-1.34648,-0.854571,2.56901
1541874477850502,-1.33743,-0.872463,2.55318
1541874477861508,-1.3225,-0.889754,2.53627
1541874477883513,-1.30693,-0.907178,2.52048
1541874477912574,-1.29314,-0.923774,2.50443
1541874477921547,-1.28043,-0.939012,2.48782
1541874477943579,-1.26924,-0.952113,2.47271
1541874477963594,-1.25844,-0.962764,2.45993
1541874477979591,-1.24813,-0.971297,2.45016
1541874478002605,-1.23805,-0.97842,2.44359
1541874478023637,-1.23311,-0.985033,2.44219
1541874478040637,-1.23531,-0.988725,2.44551
1541874478062654,-1.2425,-0.987965,2.45411
1541874478083688,-1.24955,-0.982722,2.46664
1541874478100699,-1.25644,-0.975612,2.48364
1541874478122700,-1.26476,-0.965658,2.50402
1541874478143736,-1.27702,-0.953605,2.52869
1541874478159749,-1.29093,-0.937573,2.55429
1541874478182748,-1.30443,-0.917689,2.5792
1541874478203819,-1.31805,-0.89464,2.60385
1541874478219796,-1.33213,-0.870456,2.62959
1541874478242795,-1.34536,-0.845744,2.65581
1541874478263827,-1.35831,-0.821599,2.68181
1541874478279862,-1.37197,-0.796197,2.7057
1541874478302863,-1.38692,-0.768802,2.72704
1541874478323877,-1.40286,-0.738593,2.74724
1541874478339911,-1.42033,-0.707474,2.76821
1541874478362889,-1.43488,-0.679251,2.78758
1541874478383905,-1.44729,-0.652024,2.80528
1541874478399972,-1.45944,-0.624809,2.8217
1541874478422938,-1.47073,-0.596547,2.8371
1541874478444953,-1.48164,-0.566357,2.8524
1541874478460019,-1.49146,-0.534331,2.86736
1541874478483003,-1.50051,-0.499653,2.8816
1541874478505017,-1.51026,-0.463502,2.89672
1541874478520067,-1.51893,-0.426315,2.91199
1541874478543049,-1.52512,-0.388737,2.9265
1541874478565055,-1.52976,-0.35177,2.94109
1541874478595072,-1.53369,-0.314616,2.95584
1541874478603078,-1.53851,-0.277577,2.97049
1541874478625094,-1.54562,-0.243421,2.98295
1541874478646131,-1.55375,-0.208763,2.99526
1541874478670130,-1.56152,-0.17149,3.00737
1541874478693151,-1.56957,-0.133112,3.01973
1541874478707213,-1.57498,-0.0939692,3.03252
1541874478724173,-1.57988,-0.0532408,3.04587
1541874478745199,-1.58555,-0.0109719,3.05965
1541874478768226,-1.59107,0.0326359,3.07218
1541874478783238,-1.59615,0.0757941,3.08292
1541874478805237,-1.5995,0.117757,3.0926
1541874478826256,-1.60208,0.159894,3.10176
1541874478843280,-1.60611,0.200256,3.10924
1541874478865285,-1.61098,0.23889,3.11711
1541874478886319,-1.61413,0.275784,3.12513
1541874478902369,-1.61601,0.311722,3.13309
1541874478925351,-1.61831,0.346933,3.14134
1541874478946369,-1.62124,0.378201,-3.13403
1541874478962381,-1.62499,0.407471,-3.1281
1541874478985378,-1.62725,0.434708,-3.12169
1541874479006394,-1.62807,0.46029,-3.11438
1541874479022407,-1.6313,0.48326,-3.1066
1541874479045444,-1.63523,0.503428,-3.09868
1541874479073466,-1.63909,0.52115,-3.09176
1541874479082474,-1.64249,0.537352,-3.08571
1541874479105478,-1.64662,0.551651,-3.08054
1541874479126509,-1.65017,0.564239,-3.07617
1541874479150526,-1.65322,0.576351,-3.07231
1541874479165538,-1.65747,0.587213,-3.07057
1541874479186556,-1.66211,0.596502,-3.07029
1541874479202563,-1.66626,0.6042,-3.07186
1541874479225585,-1.66959,0.609838,-3.07472
1541874479247584,-1.67267,0.613795,-3.07903
1541874479262596,-1.67593,0.615296,-3.0846
1541874479285625,-1.67835,0.615592,-3.09063
1541874479306630,-1.68013,0.614894,-3.09749
1541874479321644,-1.68137,0.613754,-3.10491
1541874479352668,-1.68289,0.611758,-3.11284
1541874479367680,-1.68536,0.609155,-3.12145
1541874479388714,-1.68778,0.60625,-3.1301
1541874479405728,-1.68909,0.602987,-3.13803
1541874479427725,-1.68901,0.598985,3.13838
1541874479448756,-1.68783,0.594563,3.13293
1541874479465813,-1.68685,0.590069,3.12854
1541874479487772,-1.68602,0.585639,3.1257
1541874479516851,-1.68585,0.581589,3.1242
1541874479525845,-1.68695,0.577826,3.12326
1541874479547821,-1.68866,0.57425,3.12301
1541874479577843,-1.69015,0.570811,3.12311
1541874479585866,-1.69063,0.567992,3.12405
1541874479607877,-1.69085,0.565763,3.12593
1541874479621878,-1.68985,0.563278,3.12844
1541874479644915,-1.68765,0.560767,3.13177
1541874479667934,-1.68486,0.557586,3.13518
1541874479688985,-1.6806,0.553138,3.13837
1541874479704962,-1.67335,0.547298,3.14079
1541874479727963,-1.66512,0.540073,-3.14118
1541874479748997,-1.65844,0.531095,3.14147
1541874479765006,-1.65128,0.521361,3.13943
1541874479788027,-1.64449,0.510831,3.13611
1541874479809045,-1.63794,0.499272,3.13115
1541874479825038,-1.63369,0.486057,3.1243
1541874479855064,-1.63083,0.470342,3.11747
1541874479869087,-1.62515,0.455099,3.11403
1541874479885101,-1.61859,0.442675,3.11543
1541874479908157,-1.61117,0.431765,3.11957
1541874479930120,-1.60251,0.421475,3.12501
1541874479953193,-1.59473,0.412241,3.13157
1541874479968150,-1.58872,0.403756,3.1388
1541874479989221,-1.58284,0.395961,-3.13635
1541874480006180,-1.57633,0.389559,-3.12755
1541874480028252,-1.56952,0.384151,-3.11821
1541874480049232,-1.56172,0.379477,-3.10882
1541874480065226,-1.55186,0.375652,-3.09916
1541874480088299,-1.54342,0.371979,-3.0898
1541874480109261,-1.53487,0.367377,-3.081
1541874480125276,-1.52568,0.361641,-3.07286
1541874480148294,-1.51732,0.355614,-3.06503
1541874480169366,-1.51112,0.348742,-3.05784
1541874480184370,-1.50668,0.341757,-3.05154
1541874480208360,-1.50374,0.334304,-3.04591
1541874480229373,-1.50217,0.326478,-3.04133
1541874480244366,-1.50176,0.318135,-3.03776
1541874480268401,-1.50358,0.309834,-3.03517
1541874480290404,-1.50728,0.301577,-3.03363
1541874480304414,-1.51092,0.293511,-3.03257
1541874480327432,-1.51548,0.285675,-3.03161
1541874480350465,-1.52193,0.276912,-3.03108
1541874480364461,-1.52849,0.26651,-3.03047
1541874480387479,-1.53556,0.25632,-3.02881
1541874480410497,-1.54407,0.246217,-3.02654
1541874480424509,-1.55233,0.235357,-3.02496
1541874480447580,-1.5595,0.223845,-3.02465
1541874480470560,-1.56661,0.212949,-3.0245
1541874480491616,-1.57701,0.203127,-3.02442
1541874480507602,-1.58931,0.193502,-3.02555
1541874480537597,-1.59966,0.184592,-3.02829
1541874480551663,-1.60787,0.177593,-3.03233
1541874480567621,-1.61692,0.1725,-3.03729
1541874480590677,-1.62536,0.168153,-3.0439
1541874480611710,-1.63247,0.164157,-3.0521
1541874480627668,-1.63821,0.159449,-3.06239
1541874480650725,-1.64417,0.152501,-3.07572
1541874480671721,-1.65057,0.144725,-3.0909
1541874480687714,-1.65579,0.13634,-3.10773
1541874480710733,-1.66271,0.127332,-3.12546
1541874480731769,-1.66876,0.119727,3.13901
1541874480747761,-1.67258,0.115697,3.12081
1541874480770800,-1.67485,0.115089,3.10417
1541874480791817,-1.6752,0.119613,3.08944
1541874480807810,-1.67568,0.128745,3.07835
1541874480830849,-1.67888,0.13744,3.07054
1541874480851863,-1.67858,0.142753,3.06394
1541874480867857,-1.67169,0.143488,3.05807
1541874480890927,-1.66124,0.13917,3.05299
1541874480911909,-1.65208,0.130442,3.04838
1541874480927905,-1.64304,0.120005,3.04307
1541874480950932,-1.633,0.110616,3.03709
1541874480971958,-1.61992,0.103968,3.03152
1541874480977962,-1.60737,0.100407,3.02654
1541874480993010,-1.59742,0.0996371,3.02214
1541874481015992,-1.58956,0.102838,3.01764
1541874481038046,-1.58273,0.109659,3.01291
1541874481053021,-1.57513,0.119251,3.00816
1541874481076039,-1.5658,0.132128,3.00393
1541874481098058,-1.55622,0.146272,3.00033
1541874481113104,-1.54922,0.159761,2.99737
1541874481136069,-1.54353,0.17214,2.99454
1541874481158084,-1.53632,0.182817,2.99177
1541874481173152,-1.52652,0.190602,2.98912
1541874481196170,-1.51457,0.195705,2.98712
1541874481218187,-1.50306,0.198936,2.98604
1541874481235164,-1.49374,0.201785,2.9858
1541874481256181,-1.48662,0.204947,2.98496
1541874481278198,-1.47749,0.209477,2.98291
1541874481293210,-1.46544,0.215986,2.98014
1541874481316264,-1.45351,0.223964,2.97699
1541874481338245,-1.44397,0.232106,2.974
1541874481353258,-1.43859,0.240004,2.97065
1541874481376256,-1.43639,0.247269,2.9667
1541874481398273,-1.43391,0.253431,2.96242
1541874481413340,-1.43267,0.257731,2.95844
1541874481436303,-1.43171,0.260026,2.9552
1541874481454334,-1.43136,0.260371,2.9533
1541874481473392,-1.43525,0.256768,2.95288
1541874481496350,-1.4438,0.248363,2.95279
1541874481518381,-1.45231,0.23723,2.95214
1541874481533382,-1.45918,0.224707,2.95133
1541874481555396,-1.46577,0.211981,2.95128
1541874481578429,-1.47413,0.198356,2.95199
1541874481593446,-1.47978,0.185433,2.95354
1541874481615464,-1.48456,0.175013,2.95747
1541874481638481,-1.4876,0.166835,2.96382
1541874481653493,-1.48838,0.162197,2.97177
1541874481675494,-1.48731,0.161903,2.98149
1541874481693504,-1.48355,0.165506,2.99237
1541874481713540,-1.47694,0.172548,3.00379
1541874481735558,-1.47027,0.182238,3.01497
1541874481753553,-1.46485,0.193662,3.02483
1541874481773588,-1.4623,0.205317,3.03348
1541874481795585,-1.46152,0.215692,3.04102
1541874481813599,-1.46079,0.224973,3.04829
1541874481833615,-1.45994,0.232405,3.05554
1541874481855632,-1.45881,0.237632,3.06351
1541874481873648,-1.45721,0.24161,3.07237
1541874481894663,-1.45556,0.244337,3.08152
1541874481915734,-1.45408,0.246408,3.09123
1541874481933694,-1.45331,0.247492,3.10107
1541874481954725,-1.45212,0.248423,3.11041
1541874481975746,-1.45138,0.249145,3.11892
1541874481993741,-1.45027,0.250071,3.12678
1541874482016813,-1.44968,0.250495,3.1342
1541874482035777,-1.44766,0.251274,-3.14154
1541874482053788,-1.44523,0.251834,-3.13465
1541874482074805,-1.44214,0.251369,-3.12863
1541874482095821,-1.43866,0.250429,-3.12363
1541874482113835,-1.43635,0.248007,-3.11993
1541874482134851,-1.43371,0.243003,-3.11821
1541874482155871,-1.42644,0.237038,-3.11792
1541874482173897,-1.41274,0.233702,-3.11698
1541874482195900,-1.39823,0.232616,-3.11502
1541874482215934,-1.38573,0.232048,-3.11385
1541874482233948,-1.37259,0.233327,-3.11401
1541874482256009,-1.36012,0.236482,-3.11508
1541874482276017,-1.34902,0.240574,-3.1173
1541874482293991,-1.3381,0.245294,-3.12014
1541874482315994,-1.32699,0.250427,-3.12302
1541874482336009,-1.31534,0.254354,-3.12577
1541874482354024,-1.30473,0.257236,-3.12823
1541874482376040,-1.29604,0.259197,-3.13034
1541874482396057,-1.2881,0.260713,-3.13215
1541874482414086,-1.27882,0.261896,-3.1334
1541874482435107,-1.26963,0.262345,-3.13423
1541874482456104,-1.26332,0.261444,-3.13459
1541874482473118,-1.26052,0.258883,-3.1348
1541874482496136,-1.25841,0.255991,-3.13472
1541874482516171,-1.2581,0.253108,-3.13425
1541874482533185,-1.2591,0.249733,-3.13359
1541874482555182,-1.25889,0.245412,-3.13239
1541874482570194,-1.2597,0.241018,-3.13081
1541874482593212,-1.26318,0.236237,-3.12863
1541874482615229,-1.26865,0.230311,-3.12598
1541874482636249,-1.27458,0.223779,-3.12317
1541874482653261,-1.28106,0.215938,-3.12033
1541874482675277,-1.28769,0.207378,-3.11702
1541874482704299,-1.29598,0.19872,-3.1128
1541874482713306,-1.30552,0.189349,-3.10803
1541874482735323,-1.31439,0.179774,-3.10324
1541874482756340,-1.32271,0.170264,-3.09788
1541874482772353,-1.3313,0.161465,-3.09203
1541874482795372,-1.34016,0.152197,-3.08602
1541874482816443,-1.3474,0.142686,-3.07993
1541874482833401,-1.35365,0.131815,-3.07386
1541874482855418,-1.35972,0.119873,-3.06792
1541874482876434,-1.36769,0.106169,-3.06238
1541874482893448,-1.3765,0.0884206,-3.05812
1541874482915465,-1.38404,0.064795,-3.05596
1541874482936481,-1.39134,0.0369542,-3.05581
1541874482952530,-1.40332,0.00688724,-3.0574
1541874482975512,-1.41971,-0.0244525,-3.06005
1541874482996528,-1.43556,-0.0558843,-3.06313
1541874483012556,-1.44818,-0.0907389,-3.06654
1541874483035559,-1.45714,-0.128876,-3.07042
1541874483056631,-1.46451,-0.170159,-3.07447
1541874483072608,-1.472,-0.213917,-3.07623
1541874483095606,-1.47939,-0.259761,-3.0765
1541874483116623,-1.48516,-0.305875,-3.07488
1541874483132650,-1.48855,-0.351105,-3.07141
1541874483155654,-1.48988,-0.393338,-3.06794
1541874483177671,-1.48689,-0.433562,-3.0661
1541874483192737,-1.48004,-0.47286,-3.06558
1541874483215716,-1.47164,-0.512848,-3.06411
1541874483237728,-1.46237,-0.554642,-3.06027
1541874483252785,-1.4474,-0.598384,-3.05717
1541874483275768,-1.42671,-0.643241,-3.05617
1541874483297800,-1.40371,-0.68755,-3.05828
1541874483318802,-1.38375,-0.730592,-3.06447
1541874483335795,-1.36912,-0.771641,-3.07529
1541874483357829,-1.36198,-0.810594,-3.08979
1541874483378843,-1.35881,-0.847937,-3.10806
1541874483395881,-1.35749,-0.88362,-3.1297
1541874483417860,-1.35634,-0.917475,3.12886
1541874483438931,-1.34985,-0.951506,3.10122
1541874483455909,-1.33917,-0.982048,3.07401
1541874483477917,-1.32427,-1.00853,3.04821
1541874483498943,-1.31072,-1.03062,3.02557
1541874483515937,-1.30052,-1.04779,3.0049
1541874483537954,-1.29678,-1.05912,2.98771
1541874483558970,-1.29434,-1.06525,2.97223
1541874483575984,-1.29084,-1.06726,2.95868
1541874483598001,-1.28567,-1.06649,2.94722
1541874483619017,-1.28017,-1.06363,2.93858
1541874483636051,-1.27744,-1.05956,2.93262
1541874483658049,-1.27648,-1.05339,2.92851
1541874483679084,-1.27617,-1.04756,2.92603
1541874483696099,-1.27683,-1.04123,2.92352
1541874483718096,-1.2785,-1.03392,2.92032
1541874483739166,-1.28201,-1.02517,2.91868
1541874483756143,-1.28502,-1.01702,2.91695
1541874483778162,-1.28596,-1.00984,2.9138
1541874483799208,-1.28457,-1.00437,2.90877
1541874483815227,-1.28248,-1.00127,2.90218
1541874483838205,-1.28002,-0.999538,2.89354
1541874483859206,-1.27828,-0.998964,2.88327
1541874483875218,-1.27713,-0.998643,2.87169
1541874483898237,-1.2761,-0.998248,2.85858
1541874483919256,-1.27458,-0.998022,2.84587
1541874483935287,-1.27234,-0.998036,2.83289
1541874483958304,-1.27038,-0.998239,2.82072
1541874483979356,-1.26953,-0.998642,2.81
1541874483995332,-1.26906,-0.99964,2.80044
1541874484018350,-1.2679,-1.00108,2.79207
1541874484039402,-1.26535,-1.00355,2.78342
1541874484055381,-1.26301,-1.00781,2.77424
1541874484078398,-1.26063,-1.01311,2.76323
1541874484100397,-1.25968,-1.01903,2.75132
1541874484115426,-1.25971,-1.02582,2.73819
1541874484138446,-1.2604,-1.03235,2.72405
1541874484160453,-1.26198,-1.0385,2.71029
1541874484175470,-1.26274,-1.04375,2.69642
1541874484198527,-1.26264,-1.04861,2.68253
1541874484220489,-1.26244,-1.05179,2.66959
1541874484241521,-1.26161,-1.05386,2.65832
1541874484258575,-1.25929,-1.05544,2.64882
1541874484280552,-1.25658,-1.05606,2.64116
1541874484301573,-1.25461,-1.05609,2.63443
1541874484318579,-1.25572,-1.05446,2.62797
1541874484340583,-1.25744,-1.05096,2.62079
1541874484362621,-1.26084,-1.04672,2.61484
1541874484378630,-1.26535,-1.04129,2.60934
1541874484400637,-1.2709,-1.03459,2.60421
1541874484421667,-1.28172,-1.02647,2.60285
1541874484438675,-1.2967,-1.01433,2.6037
1541874484460698,-1.31298,-0.997971,2.60541
1541874484481715,-1.33032,-0.976714,2.60776
1541874484498729,-1.34765,-0.951987,2.61047
1541874484520745,-1.36408,-0.923839,2.61328
1541874484541761,-1.37938,-0.893514,2.61653
1541874484557774,-1.39191,-0.860911,2.61845
1541874484580793,-1.40283,-0.82634,2.61943
1541874484601809,-1.41317,-0.789409,2.61983
1541874484617820,-1.42071,-0.75119,2.61788
1541874484640839,-1.42719,-0.71174,2.61508
1541874484661856,-1.43258,-0.670377,2.6115
1541874484677859,-1.4378,-0.628072,2.60832
1541874484700887,-1.44112,-0.585223,2.6047
1541874484721883,-1.4432,-0.542826,2.60012
1541874484737896,-1.44489,-0.500646,2.59576
1541874484760950,-1.44581,-0.458562,2.59083
1541874484781950,-1.44669,-0.416825,2.58637
1541874484797949,-1.44746,-0.375315,2.58258
1541874484820980,-1.44776,-0.333903,2.57913
1541874484841998,-1.44689,-0.292119,2.57634
1541874484858005,-1.44604,-0.250621,2.57373
1541874484881023,-1.44483,-0.209613,2.57193
1541874484903025,-1.44478,-0.168966,2.57223
1541874484917037,-1.44474,-0.128476,2.57328
1541874484941110,-1.44339,-0.0889437,2.57472
1541874484962091,-1.44217,-0.0505078,2.57792
1541874484977087,-1.44195,-0.0136155,2.58221
1541874485001103,-1.44194,0.0219511,2.58728
1541874485022119,-1.44216,0.0563499,2.5935
1541874485037131,-1.44251,0.0890134,2.59954
1541874485061170,-1.44232,0.120325,2.60636
1541874485083168,-1.44107,0.149696,2.61409
1541874485097231,-1.44034,0.17814,2.62246
1541874485121239,-1.44059,0.205729,2.63144
1541874485143225,-1.43987,0.23291,2.64126
1541874485157225,-1.43866,0.259061,2.65116
1541874485181278,-1.43776,0.283507,2.66059
1541874485203262,-1.43718,0.305928,2.6709
1541874485224281,-1.43682,0.326739,2.6822
1541874485240345,-1.43721,0.345908,2.69428
1541874485263309,-1.43856,0.363421,2.70837
1541874485284345,-1.4396,0.378646,2.72359
1541874485300338,-1.44039,0.392028,2.74068
1541874485323393,-1.43002,0.399538,2.76019
1541874485344372,-1.41865,0.406229,2.78433
1541874485360430,-1.41661,0.409099,2.81226
1541874485383422,-1.41966,0.406961,2.84236
1541874485404439,-1.42157,0.396767,2.87364
1541874485420433,-1.42013,0.382778,2.90211
1541874485426437,-1.41221,0.369754,2.92672
1541874485448455,-1.40279,0.359338,2.94911
1541874485471492,-1.39932,0.350052,2.9692
1541874485486540,-1.39736,0.34255,2.98634
1541874485508501,-1.39559,0.337533,3.00109
1541874485531575,-1.3961,0.334781,3.01419
1541874485546534,-1.39864,0.334418,3.02503
1541874485568604,-1.40132,0.335287,3.03435
1541874485591620,-1.4036,0.337954,3.0427
1541874485606581,-1.40526,0.341971,3.05153
1541874485628596,-1.40483,0.346669,3.06082
1541874485651625,-1.40292,0.352334,3.07051
1541874485666627,-1.40144,0.358261,3.07988
1541874485688698,-1.39987,0.363898,3.08934
1541874485706676,-1.39919,0.369214,3.09809
1541874485726681,-1.39904,0.375085,3.10627
1541874485748710,-1.39987,0.381427,3.11405
1541874485766705,-1.40245,0.38844,3.12171
1541874485785774,-1.40538,0.395825,3.1297
1541874485808738,-1.40852,0.403084,3.13726
1541874485826754,-1.41068,0.410053,-3.13856
1541874485845805,-1.41259,0.417181,-3.13138
1541874485868787,-1.41428,0.423533,-3.1247
1541874485886819,-1.41509,0.428317,-3.1191
1541874485905816,-1.41484,0.430874,-3.11414
1541874485928851,-1.41397,0.430934,-3.10907
1541874485944845,-1.41228,0.428755,-3.10337
1541874485973886,-1.40973,0.423893,-3.09792
1541874485991901,-1.40764,0.416599,-3.09314
1541874486006893,-1.40628,0.408077,-3.08847
1541874486025960,-1.40549,0.398923,-3.08336
1541874486048926,-1.40543,0.388782,-3.07789
1541874486066940,-1.40507,0.378431,-3.07319
1541874486086010,-1.40488,0.368284,-3.06869
1541874486108992,-1.40528,0.35907,-3.06457
1541874486127006,-1.40575,0.351191,-3.06043
1541874486146022,-1.40728,0.34453,-3.05664
1541874486169039,-1.40898,0.338521,-3.05326
1541874486187054,-1.40991,0.332583,-3.04999
1541874486206069,-1.4106,0.327253,-3.04654
1541874486229078,-1.41103,0.322611,-3.0428
1541874486247096,-1.41186,0.319181,-3.03999
1541874486266151,-1.41372,0.316665,-3.03806
1541874486289134,-1.41595,0.315275,-3.03714
1541874486307141,-1.41842,0.315045,-3.03739
1541874486326158,-1.42014,0.315825,-3.03892
1541874486348174,-1.42054,0.318152,-3.04063
1541874486366194,-1.41969,0.3218,-3.04168
1541874486386211,-1.4187,0.324781,-3.04214
1541874486409210,-1.41535,0.326731,-3.0429
1541874486426282,-1.41051,0.328782,-3.04322
1541874486446238,-1.40185,0.332586,-3.04193
1541874486468313,-1.39362,0.338109,-3.03865
1541874486486300,-1.38716,0.344493,-3.0345
1541874486506288,-1.38186,0.35169,-3.03113
1541874486528313,-1.37761,0.360152,-3.02874
1541874486546317,-1.37493,0.369995,-3.02717
1541874486566387,-1.37374,0.378821,-3.02642
1541874486588404,-1.37402,0.386527,-3.02624
1541874486606364,-1.37416,0.393222,-3.02686
1541874486629418,-1.37466,0.398866,-3.02714
1541874486648417,-1.37512,0.403306,-3.02595
1541874486666411,-1.37522,0.406875,-3.02204
1541874486687439,-1.37475,0.409301,-3.01626
1541874486708464,-1.37348,0.411118,-3.00905
1541874486726458,-1.37353,0.413077,-3.00165
1541874486747490,-1.37574,0.415666,-2.99412
1541874486768547,-1.37958,0.418865,-2.98697
1541874486786506,-1.38453,0.423056,-2.98094
1541874486807524,-1.39223,0.427895,-2.97617
1541874486828593,-1.40317,0.433332,-2.97221
1541874486846563,-1.41475,0.438113,-2.96912
1541874486867570,-1.42637,0.442679,-2.96585
1541874486889589,-1.43883,0.446466,-2.96254
1541874486905616,-1.4523,0.45022,-2.95967
1541874486926634,-1.46632,0.454826,-2.95781
1541874486949688,-1.48215,0.460389,-2.95708
1541874486965647,-1.49935,0.466712,-2.9568
1541874486988684,-1.51747,0.473241,-2.95745
1541874487009683,-1.53425,0.479178,-2.95898
1541874487025693,-1.54824,0.483947,-2.961
1541874487048768,-1.55912,0.487315,-2.96119
1541874487062723,-1.56958,0.488736,-2.96028
1541874487085740,-1.57772,0.487732,-2.95839
1541874487108778,-1.59106,0.484006,-2.95451
1541874487129788,-1.59067,0.478966,-2.95243
1541874487145788,-1.58539,0.472577,-2.95214
1541874487168827,-1.585,0.463986,-2.95201
1541874487189826,-1.58728,0.457081,-2.95193
1541874487213856,-1.5981,0.446938,-2.95425
1541874487228853,-1.5985,0.434736,-2.95629
1541874487249870,-1.59881,0.419367,-2.96053
1541874487265882,-1.60123,0.403543,-2.96393
1541874487287899,-1.60018,0.387507,-2.96518
1541874487308915,-1.59808,0.371414,-2.96571
1541874487325929,-1.59673,0.352983,-2.9715
1541874487347949,-1.59427,0.331841,-2.97869
1541874487369975,-1.59054,0.306271,-2.98639
1541874487385988,-1.58895,0.277285,-2.99461
1541874487408047,-1.59149,0.245907,-3.00173
1541874487429065,-1.59206,0.214004,-3.01034
1541874487446023,-1.5892,0.181422,-3.01959
1541874487468041,-1.584,0.147671,-3.02964
1541874487489112,-1.57932,0.114327,-3.03924
1541874487506073,-1.57686,0.081269,-3.04894
1541874487528105,-1.57503,0.048385,-3.05913
1541874487549104,-1.57049,0.016313,-3.06984
1541874487566117,-1.56565,-0.0141507,-3.07964
1541874487588134,-1.55861,-0.0435831,-3.08892
1541874487609206,-1.55083,-0.0707343,-3.09773
1541874487626185,-1.54317,-0.0954715,-3.10782
1541874487648188,-1.53346,-0.118616,-3.11821
1541874487669254,-1.52191,-0.140151,-3.12806
1541874487685221,-1.5109,-0.161071,-3.13793
1541874487708231,-1.50037,-0.182286,3.13567
1541874487729249,-1.48923,-0.205179,3.12624
1541874487745260,-1.47662,-0.229554,3.11664
1541874487768277,-1.46304,-0.254737,3.10852
1541874487789307,-1.45255,-0.281471,3.10299
1541874487805306,-1.44347,-0.308759,3.09882
1541874487828324,-1.43158,-0.334944,3.09626
1541874487849356,-1.41726,-0.360618,3.09596
1541874487865354,-1.40468,-0.385305,3.09809
1541874487888381,-1.39454,-0.406727,3.10118
1541874487911409,-1.38812,-0.425663,3.10475
1541874487925400,-1.38397,-0.441412,3.10916
1541874487948432,-1.3756,-0.454914,3.10937
1541874487971453,-1.36627,-0.455292,3.09905
1541874487992456,-1.37058,-0.446796,3.09303
1541874488008467,-1.38956,-0.439757,3.09015
1541874488030485,-1.40256,-0.437769,3.08865
1541874488051499,-1.39744,-0.441606,3.08705
1541874488068513,-1.39274,-0.448701,3.08415
1541874488090529,-1.39993,-0.452465,3.07693
1541874488111546,-1.41304,-0.448528,3.06798
1541874488128560,-1.43004,-0.441802,3.06152
1541874488150577,-1.44798,-0.436834,3.05751
1541874488171593,-1.45934,-0.434474,3.05331
1541874488188609,-1.46468,-0.433998,3.0486
1541874488210640,-1.4705,-0.434098,3.04396
1541874488231660,-1.47968,-0.434682,3.0403
1541874488248673,-1.48797,-0.436523,3.03709
1541874488270671,-1.49341,-0.438351,3.03405
1541874488291743,-1.4979,-0.440716,3.03096
1541874488308721,-1.50215,-0.442356,3.02803
1541874488330726,-1.50652,-0.443227,3.02544
1541874488351735,-1.51064,-0.443136,3.0231
1541874488368803,-1.5141,-0.442676,3.02133
1541874488390768,-1.51729,-0.441305,3.01972
1541874488411782,-1.52033,-0.438982,3.01801
1541874488428849,-1.52246,-0.435007,3.01651
1541874488450813,-1.52341,-0.429912,3.01515
1541874488471829,-1.52485,-0.424227,3.01399
1541874488488857,-1.5277,-0.418712,3.0125
1541874488510860,-1.53037,-0.414257,3.00986
1541874488531895,-1.53229,-0.410735,3.00588
1541874488548909,-1.53208,-0.408391,3.00044
1541874488570917,-1.53053,-0.406843,2.99451
1541874488591978,-1.52726,-0.406131,2.98794
1541874488608962,-1.52433,-0.406669,2.98121
1541874488630955,-1.52187,-0.407937,2.97472
1541874488652027,-1.52069,-0.408869,2.96877
1541874488668984,-1.5192,-0.407477,2.96375
1541874488691002,-1.51713,-0.404615,2.96079
1541874488712018,-1.51357,-0.399962,2.96
1541874488728085,-1.50982,-0.394707,2.96091
1541874488751064,-1.50889,-0.389491,2.96027
1541874488772084,-1.51522,-0.382675,2.95857
1541874488788115,-1.52547,-0.371988,2.95704
1541874488811096,-1.53138,-0.360775,2.95549
1541874488833113,-1.5306,-0.351096,2.95351
1541874488848125,-1.52753,-0.341211,2.95289
1541874488871143,-1.52854,-0.329166,2.95404
1541874488893176,-1.53192,-0.314284,2.95574
1541874488908192,-1.53178,-0.297692,2.95724
1541874488931194,-1.52913,-0.280725,2.95856
1541874488953224,-1.52659,-0.263358,2.96002
1541874488974281,-1.52449,-0.244562,2.96117
1541874488991256,-1.52218,-0.225423,2.96182
1541874489013271,-1.52073,-0.205681,2.96242
1541874489034289,-1.51998,-0.185758,2.96286
1541874489051294,-1.51976,-0.165983,2.96307
1541874489073305,-1.52056,-0.146581,2.96359
1541874489094338,-1.52308,-0.126392,2.9641
1541874489111333,-1.52706,-0.104511,2.96427
1541874489133349,-1.53074,-0.0827149,2.96473
1541874489154421,-1.53395,-0.0602016,2.9658
1541874489171433,-1.53689,-0.0370793,2.96718
1541874489193411,-1.5382,-0.0134729,2.96883
1541874489214432,-1.53882,0.0117479,2.97099
1541874489231441,-1.53888,0.0378604,2.97362
1541874489253442,-1.53859,0.0648626,2.9766
1541874489274479,-1.53862,0.0930502,2.98044
1541874489291483,-1.53921,0.122401,2.98456
1541874489313501,-1.54124,0.152956,2.98915
1541874489336538,-1.54441,0.185887,2.99428
1541874489350539,-1.54783,0.218581,2.99984
1541874489373538,-1.54922,0.251721,3.00576
1541874489394609,-1.54979,0.285778,3.01257
1541874489410586,-1.55047,0.320312,3.0201
1541874489433604,-1.55164,0.35519,3.02818
1541874489454621,-1.55024,0.390459,3.03651
1541874489470616,-1.54736,0.425985,3.04479
1541874489493646,-1.54467,0.460287,3.05362
1541874489514664,-1.54099,0.492164,3.06274
1541874489530671,-1.53657,0.522576,3.07298
1541874489560684,-1.53222,0.551446,3.08485
1541874489574750,-1.53,0.576548,3.09549
1541874489590730,-1.52789,0.59936,3.10597
1541874489620732,-1.52414,0.620236,3.11703
1541874489634761,-1.52042,0.639493,3.1291
1541874489650811,-1.51773,0.65747,-3.14006
1541874489673828,-1.51392,0.674525,-3.12428
1541874489694809,-1.50987,0.690493,-3.10793
1541874489716810,-1.50487,0.706396,-3.09059
1541874489733875,-1.50131,0.721422,-3.07273
1541874489754856,-1.49773,0.736871,-3.05299
1541874489770864,-1.49374,0.752637,-3.03355
1541874489793887,-1.48861,0.768035,-3.01348
1541874489815884,-1.48237,0.783408,-2.99161
1541874489830919,-1.47571,0.797801,-2.96965
1541874489853934,-1.46891,0.809911,-2.94799
1541874489875933,-1.46071,0.821523,-2.92561
1541874489881936,-1.45284,0.832161,-2.90308
1541874489898970,-1.44565,0.841325,-2.88223
1541874489918985,-1.43835,0.849348,-2.86265
1541874489941002,-1.43059,0.857352,-2.84355
1541874489958015,-1.42384,0.865917,-2.82431
1541874489979032,-1.41776,0.873981,-2.80588
1541874490002049,-1.41062,0.882052,-2.78843
1541874490018063,-1.40301,0.889662,-2.77185
1541874490039079,-1.39609,0.896605,-2.75676
1541874490061097,-1.38938,0.902221,-2.74275
1541874490078105,-1.38442,0.906283,-2.73033
1541874490099127,-1.38042,0.909126,-2.71919
1541874490121145,-1.37725,0.911292,-2.70855
1541874490138157,-1.37548,0.912998,-2.69879
1541874490159173,-1.37428,0.914633,-2.68893
1541874490181191,-1.37371,0.916168,-2.67917
1541874490198205,-1.37305,0.917325,-2.66864
1541874490219222,-1.37218,0.91844,-2.65736
1541874490241239,-1.37164,0.9186,-2.64621
1541874490258251,-1.37128,0.917278,-2.63495
1541874490279269,-1.37065,0.91647,-2.62356
1541874490301266,-1.37026,0.915852,-2.61195
1541874490318294,-1.37022,0.915746,-2.60101
1541874490339296,-1.37069,0.916119,-2.59136
1541874490361368,-1.37054,0.917349,-2.58192
1541874490378346,-1.37149,0.918532,-2.57397
1541874490399362,-1.37126,0.920569,-2.56651
1541874490429387,-1.37071,0.923352,-2.55907
1541874490438393,-1.3713,0.926083,-2.55336
1541874490459409,-1.37197,0.928308,-2.54745
1541874490481410,-1.37341,0.930063,-2.54138
1541874490498466,-1.37553,0.929978,-2.53617
1541874490519454,-1.37714,0.929974,-2.53129
1541874490541475,-1.37863,0.930671,-2.52714
1541874490558470,-1.38022,0.930793,-2.52358
1541874490579496,-1.38237,0.93063,-2.52128
1541874490596517,-1.38445,0.930264,-2.51961
1541874490617569,-1.38674,0.930414,-2.51927
1541874490638550,-1.38942,0.930374,-2.52041
1541874490656556,-1.39195,0.93019,-2.52268
1541874490677571,-1.3948,0.929868,-2.52536
1541874490698598,-1.39762,0.929644,-2.52789
1541874490716605,-1.40004,0.928931,-2.53077
1541874490739629,-1.40278,0.92811,-2.53411
1541874490758644,-1.40414,0.927527,-2.53618
1541874490776641,-1.40483,0.928045,-2.53767
1541874490799677,-1.40445,0.928905,-2.53823
1541874490818692,-1.40378,0.930471,-2.53821
1541874490836688,-1.40304,0.932024,-2.53794
1541874490859724,-1.40119,0.933784,-2.53666
1541874490878739,-1.39868,0.935736,-2.53448
1541874490896736,-1.39652,0.937389,-2.53216
1541874490919770,-1.39419,0.938473,-2.52954
1541874490938770,-1.39073,0.939945,-2.52581
1541874490956782,-1.38706,0.941755,-2.52122
1541874490979802,-1.38438,0.94378,-2.51772
1541874490998833,-1.38255,0.945475,-2.51438
1541874491016829,-1.38054,0.947338,-2.51112
1541874491039866,-1.37904,0.948859,-2.50905
1541874491058880,-1.37769,0.949157,-2.50801
1541874491076876,-1.3771,0.9482,-2.50862
1541874491099897,-1.37762,0.946619,-2.51104
1541874491118963,-1.3791,0.944554,-2.51485
1541874491136923,-1.3818,0.942476,-2.51987
1541874491159941,-1.38464,0.94035,-2.52549
1541874491179011,-1.38768,0.938259,-2.53101
1541874491196970,-1.39075,0.93607,-2.53681
1541874491219993,-1.39347,0.934203,-2.54193
1541874491239004,-1.39531,0.932977,-2.54599
1541874491257032,-1.39675,0.932005,-2.54927
1541874491279053,-1.39778,0.931805,-2.55221
1541874491302069,-1.39807,0.931716,-2.55479
1541874491317080,-1.39808,0.931257,-2.55804
1541874491339101,-1.39828,0.929399,-2.56261
1541874491360117,-1.39889,0.924418,-2.56946
1541874491382170,-1.40301,0.914444,-2.58084
1541874491399129,-1.40836,0.902416,-2.59347
1541874491420145,-1.41574,0.888528,-2.60735
1541874491435170,-1.42373,0.874349,-2.62122
1541874491459194,-1.43249,0.859965,-2.63563
1541874491480203,-1.4401,0.845185,-2.64965
1541874491495204,-1.4456,0.830899,-2.66363
1541874491526243,-1.44905,0.816914,-2.67686
1541874491539257,-1.45129,0.800864,-2.69173
1541874491555254,-1.45593,0.781041,-2.71045
1541874491578284,-1.45881,0.759917,-2.72986
1541874491600303,-1.46195,0.7384,-2.74942
1541874491615315,-1.46753,0.715871,-2.76924
1541874491646323,-1.47357,0.69156,-2.78967
1541874491659366,-1.47966,0.664607,-2.81051
1541874491675347,-1.48653,0.636064,-2.82977
1541874491698365,-1.49249,0.604737,-2.84806
1541874491721382,-1.49799,0.571577,-2.86774
1541874491735393,-1.5024,0.534966,-2.88841
1541874491758429,-1.5059,0.495759,-2.90756
1541874491781449,-1.50702,0.455109,-2.92151
1541874491802500,-1.5093,0.413782,-2.93425
1541874491818475,-1.51278,0.371482,-2.94777
1541874491841531,-1.51897,0.327515,-2.96217
1541874491862512,-1.52746,0.284288,-2.97177
1541874491878507,-1.5339,0.243627,-2.98071
1541874491901543,-1.53669,0.204273,-2.9907
1541874491922542,-1.54059,0.165791,-3.00159
1541874491938554,-1.54773,0.129209,-3.01077
1541874491961625,-1.5523,0.0946292,-3.01767
1541874491982606,-1.55222,0.0613481,-3.02402
1541874491998599,-1.54947,0.0300336,-3.03114
1541874492021673,-1.53963,-0.00257848,-3.03721
1541874492042689,-1.53158,-0.0327642,-3.04031
1541874492058646,-1.53098,-0.0611582,-3.04422
1541874492081686,-1.53215,-0.0864202,-3.0493
1541874492102681,-1.53002,-0.109663,-3.05509
1541874492118694,-1.52729,-0.130795,-3.05944
1541874492141712,-1.52752,-0.150797,-3.06311
1541874492162744,-1.52906,-0.1692,-3.06661
1541874492178760,-1.52889,-0.186723,-3.07014
1541874492200773,-1.52659,-0.204361,-3.07268
1541874492222791,-1.52523,-0.221919,-3.07401
1541874492238803,-1.52455,-0.239669,-3.07533
1541874492260820,-1.52349,-0.257254,-3.07631
1541874492281823,-1.52273,-0.274889,-3.07641
1541874492298835,-1.52236,-0.292093,-3.07564
1541874492320907,-1.52254,-0.309404,-3.07562
1541874492341888,-1.52254,-0.326349,-3.07591
1541874492358902,-1.52185,-0.343976,-3.07682
1541874492380900,-1.51982,-0.362776,-3.07769
1541874492401970,-1.51345,-0.38316,-3.08041
1541874492417940,-1.50635,-0.392718,-3.09323
1541874492440947,-1.50672,-0.386487,-3.10205
1541874492462019,-1.50521,-0.381381,-3.11001
1541874492477975,-1.50633,-0.382908,-3.11345
1541874492500996,-1.49015,-0.389222,-3.11566
1541874492522067,-1.47108,-0.396139,-3.11753
1541874492538023,-1.47011,-0.400409,-3.1189
1541874492561041,-1.47879,-0.401052,-3.12055
1541874492582077,-1.48023,-0.401103,-3.12255
1541874492598070,-1.47554,-0.401104,-3.12401
1541874492621088,-1.47335,-0.401193,-3.12491
1541874492644127,-1.47696,-0.399587,-3.12541
1541874492659135,-1.4812,-0.397223,-3.12551
1541874492681135,-1.48161,-0.395023,-3.12561
1541874492704175,-1.47974,-0.393201,-3.12564
1541874492719177,-1.47945,-0.392162,-3.1253
1541874492741183,-1.48117,-0.391089,-3.1249
1541874492764222,-1.48241,-0.390295,-3.12472
1541874492778232,-1.48287,-0.389939,-3.12462
1541874492801231,-1.4835,-0.389648,-3.12455
1541874492824249,-1.48491,-0.389114,-3.12463
1541874492838278,-1.48617,-0.388571,-3.12453
1541874492861296,-1.48673,-0.388109,-3.12466
1541874492884295,-1.48673,-0.388109,-3.12466
1541874492898325,-1.48715,-0.387834,-3.12484
1541874492921344,-1.48778,-0.387631,-3.12487
1541874492943395,-1.48792,-0.387552,-3.12494
1541874492958372,-1.48792,-0.387552,-3.12494
1541874492981372,-1.48792,-0.387552,-3.12494
1541874493003404,-1.48792,-0.387552,-3.12494
1541874493018437,-1.48778,-0.387631,-3.12487
1541874493041422,-1.48778,-0.38765,-3.12489
1541874493063446,-1.48775,-0.387555,-3.12497
1541874493078467,-1.48775,-0.387555,-3.12497
1541874493101486,-1.48775,-0.387555,-3.12497
1541874493123483,-1.487,-0.387452,-3.12519
1541874493144554,-1.48701,-0.387471,-3.12521
1541874493161533,-1.48697,-0.387357,-3.12527
1541874493183530,-1.4863,-0.387464,-3.12533
1541874493204566,-1.48501,-0.387755,-3.12534
1541874493221579,-1.48407,-0.387953,-3.12518
1541874493243577,-1.48326,-0.388053,-3.12507
1541874493264608,-1.4833,-0.388148,-3.12498
1541874493281645,-1.48358,-0.387864,-3.12499
1541874493303624,-1.48403,-0.387683,-3.12507
1541874493324656,-1.48491,-0.387313,-3.12543
1541874493341657,-1.48581,-0.386647,-3.12619
1541874493363673,-1.48731,-0.386339,-3.12686
1541874493384704,-1.48901,-0.386281,-3.12758
1541874493401760,-1.49135,-0.386151,-3.12755
1541874493423718,-1.4957,-0.385707,-3.12571
1541874493444754,-1.50203,-0.383791,-3.12284
1541874493460763,-1.50851,-0.380083,-3.12006
1541874493483766,-1.51389,-0.375442,-3.1169
1541874493504802,-1.51792,-0.370343,-3.11406
1541874493520814,-1.52266,-0.36392,-3.11155
1541874493543828,-1.52779,-0.355274,-3.1094
1541874493565850,-1.53143,-0.345005,-3.10727
1541874493580862,-1.53322,-0.332827,-3.10509
1541874493603863,-1.53448,-0.318656,-3.10326
1541874493625897,-1.5347,-0.302628,-3.10107
1541874493640908,-1.53379,-0.28465,-3.09823
1541874493663926,-1.53319,-0.264752,-3.09547
1541874493685973,-1.53327,-0.242342,-3.09355
1541874493706944,-1.53413,-0.218099,-3.09193
1541874493723974,-1.53552,-0.191881,-3.09017
1541874493745994,-1.53666,-0.165609,-3.08855
1541874493767009,-1.53752,-0.138505,-3.08678
1541874493784022,-1.53974,-0.109748,-3.08502
1541874493806035,-1.54156,-0.0802348,-3.08357
1541874493827038,-1.542,-0.0493149,-3.08176
1541874493844088,-1.54252,-0.0178959,-3.07907
1541874493866086,-1.54346,0.0135264,-3.07605
1541874493887103,-1.54393,0.044773,-3.07285
1541874493904116,-1.54137,0.0741918,-3.06922
1541874493926116,-1.53741,0.103216,-3.06491
1541874493947150,-1.53613,0.132529,-3.06062
1541874493964165,-1.53721,0.162061,-3.05639
1541874493986168,-1.53773,0.190923,-3.05246
1541874494007231,-1.53578,0.21946,-3.04851
1541874494024210,-1.53374,0.247603,-3.04456
1541874494046207,-1.53319,0.275864,-3.04055
1541874494067243,-1.53339,0.30336,-3.0368
1541874494084257,-1.53024,0.329082,-3.03329
1541874494106256,-1.52419,0.353293,-3.02991
1541874494127290,-1.52014,0.37679,-3.0264
1541874494144301,-1.51963,0.400083,-3.02359
1541874494166302,-1.5212,0.422419,-3.02132
1541874494187337,-1.52235,0.442752,-3.01929
1541874494204343,-1.52131,0.463189,-3.01675
1541874494226349,-1.52055,0.483142,-3.01443
1541874494247384,-1.52052,0.502845,-3.01084
1541874494264379,-1.51909,0.522849,-3.00648
1541874494286397,-1.51717,0.542719,-3.00192
1541874494307432,-1.51486,0.561439,-2.99786
1541874494323426,-1.51066,0.579378,-2.99373
1541874494346445,-1.50651,0.596556,-2.98945
1541874494351485,-1.50308,0.612815,-2.98509
1541874494374468,-1.50013,0.628071,-2.98122
1541874494390479,-1.49781,0.642297,-2.97774
1541874494411514,-1.49646,0.655338,-2.97407
1541874494434567,-1.49513,0.667333,-2.97061
1541874494449540,-1.49428,0.679399,-2.96673
1541874494471561,-1.49422,0.69135,-2.96311
1541874494494579,-1.49498,0.702841,-2.95945
1541874494509590,-1.49516,0.715148,-2.95484
1541874494531609,-1.49559,0.727609,-2.94965
1541874494554609,-1.49557,0.740255,-2.94331
1541874494569621,-1.49513,0.75382,-2.93658
1541874494591636,-1.49443,0.766595,-2.9309
1541874494614674,-1.49238,0.777871,-2.92576
1541874494629685,-1.49006,0.788722,-2.92021
1541874494651703,-1.48993,0.798737,-2.91571
1541874494674721,-1.49104,0.806255,-2.91307
1541874494689728,-1.4909,0.812409,-2.9118
1541874494711731,-1.4915,0.818295,-2.91068
1541874494734763,-1.49243,0.82401,-2.90896
1541874494749760,-1.494,0.828922,-2.90808
1541874494771797,-1.49619,0.834116,-2.90651
1541874494794807,-1.49769,0.840489,-2.90404
1541874494808826,-1.49873,0.847957,-2.90041
1541874494831825,-1.49961,0.855762,-2.89705
1541874494853862,-1.49971,0.863418,-2.89324
1541874494868873,-1.49973,0.872218,-2.88821
1541874494891891,-1.50008,0.88065,-2.88277
1541874494913909,-1.50015,0.889036,-2.87823
1541874494928922,-1.49906,0.897154,-2.87343
1541874494951922,-1.49821,0.904191,-2.86921
1541874494973943,-1.49593,0.910449,-2.86454
1541874494989003,-1.49499,0.915634,-2.86071
1541874495011986,-1.49422,0.918779,-2.85804
1541874495034003,-1.49538,0.919919,-2.85695
1541874495049014,-1.49675,0.919297,-2.85634
1541874495072036,-1.4988,0.918423,-2.85513
1541874495090045,-1.5008,0.918085,-2.85276
1541874495111081,-1.50251,0.91796,-2.84945
1541874495132080,-1.50367,0.918456,-2.8457
1541874495150095,-1.50444,0.919902,-2.84165
1541874495171147,-1.50417,0.922129,-2.83632
1541874495192164,-1.50381,0.924607,-2.8305
1541874495210143,-1.50271,0.927443,-2.82456
1541874495231161,-1.50025,0.930589,-2.81857
1541874495252174,-1.49857,0.934248,-2.81367
1541874495270185,-1.49622,0.937958,-2.8086
1541874495291189,-1.49367,0.941868,-2.80397
1541874495312212,-1.49172,0.944968,-2.80052
1541874495330231,-1.49043,0.948011,-2.79779
1541874495351233,-1.48906,0.950691,-2.79624
1541874495372252,-1.4876,0.952848,-2.79599
1541874495390264,-1.48707,0.95437,-2.79709
1541874495411290,-1.48734,0.955014,-2.79881
1541874495432315,-1.48756,0.956123,-2.80055
1541874495449330,-1.48819,0.956886,-2.80256
1541874495473348,-1.48865,0.957524,-2.80369
1541874495492360,-1.48986,0.957503,-2.80522
1541874495509377,-1.49097,0.95772,-2.80626
1541874495532394,-1.49198,0.957801,-2.80668
1541874495551389,-1.49214,0.957891,-2.80646
1541874495569431,-1.49208,0.958234,-2.8055
1541874495592424,-1.49155,0.958713,-2.80428
1541874495611456,-1.49168,0.95917,-2.8037
1541874495629452,-1.49192,0.959862,-2.80373
1541874495652489,-1.49168,0.960314,-2.80375
1541874495671504,-1.4923,0.960895,-2.80429
1541874495689499,-1.49198,0.961321,-2.80417
1541874495712535,-1.49198,0.961321,-2.80417
1541874495731551,-1.49197,0.960602,-2.80425
1541874495757571,-1.49215,0.959382,-2.8047
1541874495772601,-1.49281,0.958028,-2.80542
1541874495792600,-1.4938,0.957204,-2.80604
1541874495808605,-1.49413,0.956492,-2.80591
1541874495831631,-1.49444,0.955743,-2.80626
1541874495852649,-1.49438,0.95549,-2.80636
1541874495868639,-1.49387,0.955096,-2.80644
1541874495891676,-1.49387,0.954303,-2.80713
1541874495912693,-1.4933,0.953669,-2.8078
1541874495928687,-1.49314,0.952738,-2.80871
1541874495951724,-1.4932,0.951333,-2.81059
1541874495972740,-1.49342,0.950542,-2.81237
1541874495988744,-1.49381,0.949618,-2.81416
1541874496011806,-1.49397,0.949182,-2.81547
1541874496033776,-1.49365,0.948771,-2.81605
1541874496048790,-1.49298,0.948248,-2.81635
1541874496071817,-1.4924,0.946867,-2.8171
1541874496092834,-1.49231,0.945241,-2.81882
1541874496108827,-1.49193,0.942658,-2.8211
1541874496131899,-1.49182,0.93968,-2.82444
1541874496152877,-1.49128,0.936654,-2.82823
1541874496168875,-1.49118,0.933027,-2.8332
1541874496191948,-1.49126,0.928597,-2.83932
1541874496212929,-1.49206,0.922139,-2.84746
1541874496227940,-1.49372,0.913315,-2.85733
1541874496251959,-1.49599,0.902684,-2.86838
1541874496272975,-1.49964,0.889291,-2.88085
1541874496287988,-1.5051,0.872633,-2.89548
1541874496312006,-1.50959,0.854038,-2.90998
1541874496333057,-1.51391,0.833997,-2.92342
1541874496348039,-1.51811,0.813546,-2.93484
1541874496371034,-1.52496,0.791417,-2.94556
1541874496394064,-1.53096,0.765897,-2.95463
1541874496408075,-1.53315,0.73963,-2.96237
1541874496431144,-1.53469,0.713048,-2.96777
1541874496454100,-1.53748,0.68515,-2.97218
1541874496468110,-1.53989,0.655431,-2.97739
1541874496491147,-1.54262,0.624707,-2.98377
1541874496514165,-1.54397,0.594455,-2.98897
1541874496535217,-1.54625,0.564914,-2.99467
1541874496551194,-1.5486,0.535696,-3.00095
1541874496574193,-1.5516,0.506188,-3.0077
1541874496595265,-1.55317,0.476369,-3.01358
1541874496611233,-1.5529,0.446631,-3.02062
1541874496634259,-1.55336,0.417581,-3.02772
1541874496655276,-1.55568,0.388216,-3.03424
1541874496671271,-1.55848,0.357816,-3.04082
1541874496694307,-1.56028,0.327007,-3.04753
1541874496715324,-1.56079,0.29483,-3.05413
1541874496731317,-1.56063,0.262011,-3.05987
1541874496754354,-1.56217,0.228303,-3.06369
1541874496775353,-1.56163,0.193276,-3.06732
1541874496791366,-1.55712,0.157573,-3.07209
1541874496814398,-1.55156,0.121664,-3.07719
1541874496835453,-1.54957,0.0864381,-3.08122
1541874496851413,-1.55132,0.0519661,-3.08582
1541874496874449,-1.55263,0.0183568,-3.09014
1541874496895465,-1.55228,-0.0146818,-3.0945
1541874496911459,-1.55111,-0.047134,-3.09914
1541874496934495,-1.54907,-0.0789092,-3.10365
1541874496955511,-1.54753,-0.108551,-3.10672
1541874496971510,-1.54816,-0.136964,-3.10914
1541874496994580,-1.54906,-0.163238,-3.11176
1541874497015597,-1.55045,-0.187798,-3.11393
1541874497031563,-1.55267,-0.210229,-3.11486
1541874497053589,-1.55573,-0.230244,-3.11544
1541874497075601,-1.55941,-0.248368,-3.11605
1541874497091623,-1.5611,-0.263475,-3.11657
1541874497113672,-1.56233,-0.276968,-3.11584
1541874497134634,-1.56382,-0.288553,-3.11434
1541874497157671,-1.5635,-0.298698,-3.11249
1541874497173680,-1.56265,-0.308157,-3.11037
1541874497194683,-1.56154,-0.316576,-3.1081
1541874497210694,-1.56087,-0.325005,-3.10561
1541874497233723,-1.55994,-0.333709,-3.10324
1541874497254746,-1.55926,-0.34223,-3.10065
1541874497270740,-1.55889,-0.350766,-3.09766
1541874497293759,-1.55906,-0.359494,-3.09424
1541874497314790,-1.55788,-0.366656,-3.09192
1541874497330787,-1.55572,-0.366399,-3.09449
1541874497353806,-1.54848,-0.36338,-3.09811
1541874497376861,-1.54718,-0.362604,-3.0986
1541874497390835,-1.54583,-0.365234,-3.09598
1541874497413854,-1.53854,-0.369221,-3.09429
1541874497436871,-1.5339,-0.370586,-3.09394
1541874497450882,-1.53148,-0.370213,-3.09449
1541874497473911,-1.53002,-0.369982,-3.09467
1541874497496938,-1.52751,-0.370303,-3.09469
1541874497510948,-1.52419,-0.370049,-3.09479
1541874497533946,-1.52285,-0.369293,-3.09476
1541874497557020,-1.52316,-0.368422,-3.09488
1541874497570976,-1.52312,-0.367787,-3.09531
1541874497593994,-1.523,-0.366966,-3.09591
1541874497617027,-1.52359,-0.365987,-3.09623
1541874497631024,-1.52401,-0.364729,-3.09629
1541874497654042,-1.52412,-0.363594,-3.09635
1541874497677073,-1.52395,-0.362548,-3.09618
1541874497691090,-1.52395,-0.361674,-3.09617
1541874497714088,-1.52381,-0.360967,-3.09617
1541874497736117,-1.52374,-0.360554,-3.09611
1541874497751138,-1.52378,-0.360019,-3.09627
1541874497774136,-1.52459,-0.359808,-3.09628
1541874497796152,-1.52539,-0.359686,-3.09638
1541874497811180,-1.5262,-0.359759,-3.09669
1541874497834202,-1.52743,-0.359451,-3.09707
1541874497856200,-1.52888,-0.359232,-3.09734
1541874497877217,-1.53054,-0.359102,-3.09748
1541874497894230,-1.53181,-0.358801,-3.09768
1541874497916248,-1.53284,-0.358769,-3.09766
1541874497937264,-1.53401,-0.35857,-3.09763
1541874497954278,-1.53521,-0.358446,-3.09749
1541874497976294,-1.53521,-0.358446,-3.09749
1541874497997311,-1.53486,-0.358366,-3.09746
1541874498014327,-1.53501,-0.358737,-3.09711
1541874498036359,-1.53458,-0.359098,-3.09701
1541874498057377,-1.53398,-0.359642,-3.09713
1541874498074372,-1.53397,-0.359624,-3.09711
1541874498096388,-1.5345,-0.360053,-3.09747
1541874498117405,-1.53496,-0.360297,-3.09801
1541874498134419,-1.53541,-0.360542,-3.09855
1541874498156436,-1.53569,-0.360684,-3.09901
1541874498177508,-1.53579,-0.360761,-3.09944
1541874498194486,-1.53539,-0.361032,-3.09996
1541874498216483,-1.53539,-0.361121,-3.10005
1541874498237520,-1.53561,-0.36119,-3.09991
1541874498254533,-1.53703,-0.36037,-3.09973
1541874498276531,-1.53963,-0.359265,-3.09942
1541874498299568,-1.54398,-0.358044,-3.098
1541874498314580,-1.54859,-0.355146,-3.09627
1541874498336589,-1.55282,-0.352805,-3.09447
1541874498359618,-1.55526,-0.348886,-3.09312
1541874498374608,-1.55663,-0.343699,-3.09244
1541874498396628,-1.55802,-0.3364,-3.09139
1541874498419658,-1.55903,-0.326917,-3.0912
1541874498439661,-1.5608,-0.31497,-3.09124
1541874498456672,-1.56382,-0.300483,-3.09192
1541874498478744,-1.56672,-0.283386,-3.09247
1541874498500728,-1.56763,-0.264012,-3.09325
1541874498516720,-1.56895,-0.243695,-3.09407
1541874498538756,-1.57145,-0.222513,-3.09462
1541874498559756,-1.57329,-0.199721,-3.09519
1541874498576786,-1.57351,-0.176301,-3.09647
1541874498598798,-1.57737,-0.148501,-3.09835
1541874498619856,-1.58373,-0.123609,-3.09927
1541874498636816,-1.58745,-0.0962202,-3.10051
1541874498658860,-1.58883,-0.0691593,-3.10167
1541874498679866,-1.59022,-0.0412453,-3.10303
1541874498696897,-1.59221,-0.0123757,-3.10416
1541874498718884,-1.59448,0.0167502,-3.1051
1541874498739914,-1.5967,0.0463975,-3.10592
1541874498756927,-1.59871,0.0766564,-3.10672
1541874498778941,-1.59898,0.107759,-3.10784
1541874498799962,-1.59856,0.139052,-3.10874
1541874498806966,-1.59914,0.170676,-3.10858
1541874498821978,-1.60088,0.202635,-3.10725
1541874498844996,-1.60567,0.235421,-3.10581
1541874498867013,-1.6118,0.268642,-3.10453
1541874498882026,-1.61293,0.301319,-3.10353
1541874498905026,-1.60995,0.334152,-3.10257
1541874498927061,-1.60766,0.365952,-3.10152
1541874498942072,-1.60742,0.395905,-3.09909
1541874498965085,-1.60681,0.424689,-3.09671
1541874498987108,-1.60619,0.451892,-3.09417
1541874499005123,-1.60674,0.476786,-3.09213
1541874499025135,-1.60572,0.498962,-3.09043
1541874499047155,-1.60334,0.519527,-3.08922
1541874499062167,-1.60262,0.540079,-3.0866
1541874499084185,-1.60192,0.558849,-3.08378
1541874499107202,-1.59978,0.577218,-3.08109
1541874499122214,-1.59679,0.595501,-3.07766
1541874499144267,-1.5949,0.615078,-3.07313
1541874499167285,-1.59337,0.634913,-3.06793
1541874499182248,-1.59032,0.654476,-3.06259
1541874499204314,-1.58556,0.673844,-3.05711
1541874499222273,-1.58129,0.693329,-3.05109
1541874499242308,-1.57729,0.713609,-3.0443
1541874499264309,-1.57354,0.733605,-3.03838
1541874499282330,-1.5676,0.753572,-3.03257
1541874499302355,-1.56123,0.772883,-3.02655
1541874499324354,-1.55657,0.79151,-3.02006
1541874499343369,-1.5535,0.808508,-3.01373
1541874499362403,-1.55004,0.823963,-3.00778
1541874499384415,-1.5462,0.83837,-3.00285
1541874499402430,-1.5429,0.85202,-2.99799
1541874499422445,-1.54066,0.864278,-2.99228
1541874499444468,-1.5388,0.874969,-2.9861
1541874499462462,-1.53737,0.884545,-2.97919
1541874499482494,-1.53576,0.893678,-2.97041
1541874499504495,-1.53344,0.902316,-2.95945
1541874499522509,-1.5315,0.911571,-2.94748
1541874499542525,-1.52783,0.921238,-2.93291
1541874499564541,-1.52344,0.929969,-2.91811
1541874499582559,-1.5172,0.937822,-2.90263
1541874499602628,-1.51149,0.944197,-2.88795
1541874499624604,-1.50639,0.949697,-2.87414
1541874499642605,-1.50248,0.954841,-2.86159
1541874499662630,-1.49842,0.960003,-2.85017
1541874499684639,-1.49501,0.965927,-2.84023
1541874499702670,-1.49148,0.971941,-2.83095
1541874499723686,-1.48855,0.978199,-2.82199
1541874499744703,-1.48571,0.983494,-2.81316
1541874499762698,-1.4814,0.988577,-2.80351
1541874499781712,-1.47745,0.994122,-2.79442
1541874499804731,-1.47338,0.999494,-2.78624
1541874499822745,-1.46972,1.00501,-2.77951
1541874499843761,-1.46667,1.01022,-2.77402
1541874499864778,-1.46412,1.01539,-2.77029
1541874499882792,-1.46204,1.01995,-2.76769
1541874499904809,-1.46115,1.0233,-2.76685
1541874499924827,-1.46095,1.02579,-2.76684
1541874499942860,-1.4616,1.02751,-2.76794
1541874499963875,-1.46302,1.02821,-2.76964
1541874499984892,-1.46437,1.02843,-2.77108
1541874500002887,-1.46592,1.02817,-2.77241
1541874500023904,-1.46778,1.02771,-2.77364
1541874500039916,-1.46918,1.0274,-2.77419
1541874500062934,-1.4698,1.027,-2.7735
1541874500083950,-1.4705,1.02688,-2.77231
1541874500099963,-1.47023,1.02669,-2.77038
1541874500123001,-1.46963,1.0271,-2.76816
1541874500143997,-1.46914,1.02779,-2.76647
1541874500160010,-1.46826,1.02882,-2.7646
1541874500183028,-1.4678,1.02973,-2.76329
1541874500205045,-1.46694,1.03082,-2.76192
1541874500220057,-1.46659,1.03141,-2.76163
1541874500243091,-1.46674,1.03145,-2.76241
1541874500264095,-1.46753,1.0311,-2.76352
1541874500285108,-1.46875,1.03038,-2.76493
1541874500302122,-1.47027,1.02991,-2.76639
1541874500324139,-1.47117,1.02909,-2.76763
1541874500339151,-1.47165,1.02884,-2.76844
1541874500362183,-1.47165,1.02884,-2.76844
1541874500384190,-1.47148,1.02874,-2.76766
1541874500398198,-1.47047,1.02922,-2.7664
1541874500422217,-1.47018,1.02998,-2.76562
1541874500444233,-1.46982,1.03052,-2.76533
1541874500458244,-1.46972,1.03114,-2.76557
1541874500481262,-1.46984,1.03142,-2.7661
1541874500504280,-1.46975,1.03135,-2.76596
1541874500518340,-1.46975,1.0312,-2.76609
1541874500542320,-1.46975,1.0312,-2.76609
1541874500564328,-1.46975,1.0312,-2.76609
1541874500578339,-1.4701,1.03136,-2.76677
1541874500602373,-1.47027,1.031,-2.76742
1541874500624394,-1.47074,1.03045,-2.76797
1541874500638386,-1.47142,1.02996,-2.76894
1541874500662408,-1.4722,1.02961,-2.77005
1541874500684441,-1.47361,1.02925,-2.77161
1541874500705494,-1.47504,1.02911,-2.77356
1541874500721462,-1.47629,1.02874,-2.77573
1541874500744473,-1.47685,1.02822,-2.77744
1541874500765488,-1.47734,1.02782,-2.77938
1541874500781514,-1.47797,1.02717,-2.78185
1541874500804536,-1.47826,1.02592,-2.7845
1541874500825589,-1.47853,1.02487,-2.78792
1541874500841546,-1.47885,1.02395,-2.79184
1541874500864582,-1.47886,1.02284,-2.79661
1541874500885594,-1.47914,1.02095,-2.80264
1541874500901593,-1.47966,1.01728,-2.81024
1541874500924629,-1.48051,1.00983,-2.81941
1541874500945646,-1.4799,1.00017,-2.83
1541874500961642,-1.4798,0.989125,-2.84434
1541874500984712,-1.48291,0.974729,-2.86337
1541874501005730,-1.48875,0.957275,-2.88599
1541874501021687,-1.4962,0.936045,-2.90905
1541874501044725,-1.50442,0.911144,-2.93161
1541874501065741,-1.51305,0.883215,-2.95367
1541874501080732,-1.52149,0.852456,-2.976
1541874501104771,-1.52912,0.819556,-2.99774
1541874501125823,-1.53647,0.785137,-3.01797
1541874501140845,-1.54405,0.749906,-3.03509
1541874501164814,-1.55125,0.714945,-3.0491
1541874501186817,-1.55638,0.67956,-3.06085
1541874501209847,-1.56138,0.644409,-3.07127
1541874501224846,-1.56613,0.609693,-3.08085
1541874501246864,-1.57132,0.575212,-3.09024
1541874501267899,-1.57554,0.541831,-3.09793
1541874501283895,-1.5787,0.510352,-3.10406
1541874501306910,-1.58273,0.479383,-3.11057
1541874501327947,-1.58657,0.447527,-3.11836
1541874501343958,-1.5896,0.41648,-3.12614
1541874501366973,-1.59182,0.387165,-3.13217
1541874501387994,-1.59436,0.359367,-3.13692
1541874501404010,-1.59669,0.332852,3.14145
1541874501427025,-1.59809,0.307867,3.13658
1541874501448076,-1.59814,0.284053,3.13149
1541874501464052,-1.59841,0.261617,3.12752
1541874501487055,-1.59952,0.239894,3.12465
1541874501508088,-1.60128,0.21916,3.12182
1541874501524081,-1.60209,0.199232,3.11869
1541874501547115,-1.60181,0.180028,3.11634
1541874501568170,-1.6013,0.161389,3.11488
1541874501584129,-1.60154,0.142766,3.11473
1541874501607161,-1.60159,0.124601,3.11519
1541874501628176,-1.60063,0.106096,3.11467
1541874501644178,-1.59819,0.0851011,3.11278
1541874501667231,-1.59627,0.0629807,3.11038
1541874501688210,-1.59543,0.0418157,3.10887
1541874501704225,-1.5962,0.0214134,3.10774
1541874501727260,-1.59559,0.00154753,3.10627
1541874501748261,-1.59289,-0.0188862,3.10451
1541874501764289,-1.59125,-0.0392548,3.10245
1541874501787307,-1.59082,-0.0600812,3.10048
1541874501808324,-1.58971,-0.0810759,3.09812
1541874501824317,-1.58825,-0.102242,3.09572
1541874501847388,-1.58695,-0.123077,3.09329
1541874501868367,-1.58737,-0.142838,3.09119
1541874501883374,-1.58925,-0.161097,3.08904
1541874501907394,-1.59152,-0.177566,3.08684
1541874501928417,-1.59184,-0.19261,3.08447
1541874501943424,-1.59045,-0.206473,3.0827
1541874501967431,-1.58948,-0.219572,3.08172
1541874501988451,-1.5893,-0.23226,3.08126
1541874502003458,-1.58874,-0.244164,3.08047
1541874502026496,-1.58815,-0.2553,3.07958
1541874502055518,-1.5876,-0.266006,3.07895
1541874502063505,-1.58708,-0.276181,3.07866
1541874502086582,-1.58674,-0.286129,3.07829
1541874502109562,-1.58597,-0.295091,3.07778
1541874502123553,-1.58459,-0.303682,3.0782
1541874502146589,-1.58178,-0.312411,3.07944
1541874502169607,-1.57878,-0.321219,3.08141
1541874502183614,-1.57615,-0.329698,3.08341
1541874502206626,-1.57378,-0.338552,3.08526
1541874502229654,-1.57305,-0.346928,3.08756
1541874502250707,-1.57235,-0.35506,3.08995
1541874502266666,-1.56918,-0.363381,3.09285
1541874502289702,-1.56312,-0.372894,3.09693
1541874502310754,-1.55444,-0.384699,3.10217
1541874502326712,-1.54236,-0.398168,3.10635
1541874502349784,-1.53051,-0.404965,3.10062
1541874502370803,-1.53081,-0.40262,3.09793
1541874502386769,-1.53452,-0.40328,3.09576
1541874502409796,-1.53894,-0.405912,3.09547
1541874502430812,-1.53159,-0.411149,3.09497
1541874502446805,-1.52004,-0.418504,3.09392
1541874502469839,-1.52469,-0.423581,3.09168
1541874502490896,-1.53793,-0.423569,3.08896
1541874502506854,-1.54213,-0.422157,3.08661
1541874502529891,-1.53957,-0.421797,3.08547
1541874502550891,-1.53754,-0.422169,3.08459
1541874502566901,-1.54012,-0.42199,3.08452
1541874502589973,-1.54256,-0.421516,3.08488
1541874502610989,-1.54193,-0.421502,3.08527
1541874502626957,-1.54045,-0.421744,3.08556
1541874502648967,-1.54027,-0.421722,3.08554
1541874502670992,-1.54108,-0.421408,3.08553
1541874502687016,-1.5409,-0.421386,3.0855
1541874502709032,-1.54108,-0.421408,3.08553
1541874502730031,-1.54133,-0.421931,3.0854
1541874502747043,-1.54257,-0.42222,3.08522
1541874502769122,-1.54372,-0.421989,3.08503
1541874502790090,-1.54384,-0.421899,3.08479
1541874502807104,-1.5438,-0.421806,3.0847
1541874502829160,-1.54384,-0.421991,3.0847
1541874502850138,-1.54435,-0.422004,3.08463
1541874502867136,-1.54483,-0.421923,3.08448
1541874502889170,-1.54483,-0.421923,3.08448
1541874502910225,-1.54568,-0.421945,3.0843
1541874502927221,-1.5472,-0.421984,3.08392
1541874502949217,-1.54825,-0.421477,3.08345
1541874502970272,-1.54897,-0.421071,3.08298
1541874502987249,-1.5499,-0.420729,3.08266
1541874503009248,-1.55172,-0.420688,3.08208
1541874503030319,-1.55366,-0.420378,3.08145
1541874503046278,-1.55487,-0.420158,3.08055
1541874503069294,-1.55619,-0.419407,3.07987
1541874503092334,-1.55808,-0.418473,3.0795
1541874503107343,-1.55956,-0.417194,3.07922
1541874503129343,-1.56044,-0.415465,3.07995
1541874503152379,-1.56155,-0.413371,3.08126
1541874503167391,-1.56301,-0.410237,3.08266
1541874503189389,-1.56363,-0.406455,3.08398
1541874503212427,-1.56426,-0.40234,3.08563
1541874503226434,-1.56437,-0.397661,3.0879
1541874503233486,-1.56485,-0.391507,3.09069
1541874503254460,-1.566,-0.384135,3.09344
1541874503277473,-1.56789,-0.375021,3.09597
1541874503295476,-1.57023,-0.364086,3.09866
1541874503314502,-1.57253,-0.350715,3.10113
1541874503337527,-1.57389,-0.335477,3.10351
1541874503355541,-1.57427,-0.318849,3.10604
1541874503374553,-1.57489,-0.300674,3.1086
1541874503397572,-1.57584,-0.281487,3.111
1541874503413567,-1.57784,-0.26058,3.11405
1541874503434602,-1.57996,-0.238663,3.11775
1541874503457619,-1.58099,-0.21598,3.12186
1541874503473622,-1.58104,-0.191919,3.12619
1541874503494650,-1.58026,-0.167534,3.13112
1541874503517666,-1.57842,-0.142308,3.13634
1541874503533659,-1.57692,-0.116334,3.14152
1541874503554696,-1.57682,-0.0895246,-3.13622
1541874503577714,-1.57693,-0.0618662,-3.13044
1541874503593708,-1.5764,-0.0333597,-3.12484
1541874503614778,-1.57422,-0.00410431,-3.11863
1541874503637796,-1.5711,0.0255578,-3.11207
1541874503653753,-1.56792,0.0556389,-3.1055
1541874503674790,-1.56537,0.086679,-3.09893
1541874503697808,-1.56364,0.117927,-3.09249
1541874503713802,-1.56224,0.149462,-3.08624
1541874503734873,-1.55965,0.181002,-3.08085
1541874503757855,-1.5554,0.213397,-3.07586
1541874503773849,-1.55123,0.246368,-3.07105
1541874503794885,-1.54679,0.279033,-3.06708
1541874503817894,-1.54369,0.314013,-3.06299
1541874503834906,-1.54155,0.349104,-3.05875
1541874503854932,-1.5412,0.384241,-3.05525
1541874503877932,-1.53995,0.418741,-3.05241
1541874503893963,-1.53735,0.451791,-3.04965
1541874503914980,-1.53366,0.484687,-3.04568
1541874503936996,-1.52877,0.517185,-3.03971
1541874503954010,-1.52525,0.547718,-3.03487
1541874503975028,-1.52066,0.576812,-3.0295
1541874503997043,-1.5145,0.604233,-3.02433
1541874504015038,-1.50793,0.630723,-3.01784
1541874504035055,-1.50277,0.65586,-3.01138
1541874504057090,-1.49932,0.679052,-3.00536
1541874504075085,-1.49667,0.700679,-3.00003
1541874504095115,-1.49307,0.721189,-2.99303
1541874504117137,-1.49025,0.740336,-2.98553
1541874504135133,-1.48715,0.758663,-2.97784
1541874504155167,-1.48275,0.776058,-2.96875
1541874504177184,-1.479,0.792351,-2.95883
1541874504195179,-1.47625,0.806431,-2.94948
1541874504215215,-1.47207,0.818678,-2.94042
1541874504237228,-1.46519,0.830287,-2.93032
1541874504255228,-1.45874,0.841459,-2.92086
1541874504275297,-1.45305,0.851663,-2.91137
1541874504297279,-1.44846,0.86078,-2.9023
1541874504315274,-1.44452,0.869174,-2.89362
1541874504335292,-1.44049,0.877153,-2.88566
1541874504357321,-1.43547,0.88463,-2.8776
1541874504375321,-1.43057,0.891241,-2.87013
1541874504395356,-1.42583,0.89677,-2.86301
1541874504417369,-1.42162,0.900664,-2.85605
1541874504435368,-1.41676,0.903982,-2.84892
1541874504455399,-1.41255,0.906649,-2.84295
1541874504477404,-1.40949,0.908348,-2.83875
1541874504495417,-1.40691,0.909801,-2.83646
1541874504515451,-1.40658,0.91141,-2.83595
1541874504532465,-1.4076,0.913088,-2.83639
1541874504555481,-1.40941,0.91518,-2.83804
1541874504575500,-1.41141,0.918235,-2.83993
1541874504592512,-1.41264,0.921772,-2.84146
1541874504615530,-1.41296,0.926553,-2.84167
1541874504636527,-1.41296,0.931678,-2.84127
1541874504652539,-1.41247,0.937122,-2.84037
1541874504675557,-1.4109,0.943192,-2.8387
1541874504695575,-1.40792,0.949138,-2.83563
1541874504711586,-1.40572,0.954755,-2.83328
1541874504734604,-1.40412,0.959283,-2.83081
1541874504755620,-1.4028,0.96302,-2.82822
1541874504771632,-1.40139,0.966186,-2.82536
1541874504794650,-1.39971,0.969204,-2.82199
1541874504815681,-1.39884,0.97124,-2.8194
1541874504831689,-1.39804,0.973,-2.8167
1541874504854698,-1.39819,0.973516,-2.81482
